BOXY.EXE: ISS Imagent and Oximeter Data Acquisition Program Version 0.80
Ascii Record File

#ACQ INFORMATION
2  Detector Channels 
16  External MUX Channels 
1  Auxiliary Channels 
6250  Waveform (CCF) Frequency (Hz)
1  Waveforms Skipped 
1  Waveforms Averaged 
1  Cycles Averaged 
16  Acquisitions per Waveform 
195.3125  Updata Rate (Hz) 

#FILE INFORMATION
TRUE -- External MUX Channel results are PARSED.
FALSE -- AC DC and Phase are NOT grouped.
TRUE -- Companion Program Settings File CREATED.
FALSE -- AC data not excluded
FALSE -- DC data not excluded
FALSE -- Phase data not excluded
FALSE -- Auxillary Chn. data not excluded
Tab delimiters

#CALIBRATION STATE
TRUE -- Waveform Calibration Values APPLIED.


#AUX CALIBRATION VALUES
Val Type	aux-1	

Term	1.0000e+00	
Factor	0.0000e+00	


#WF CALIBRATION VALUES
A = Detector Channel
Val Type	A-AC1	A-AC2	A-AC3	A-AC4	A-AC5	A-AC6	A-AC7	A-AC8	A-AC9	A-AC10	A-AC11	A-AC12	A-AC13	A-AC14	A-AC15	A-AC16	A-DC1	A-DC2	A-DC3	A-DC4	A-DC5	A-DC6	A-DC7	A-DC8	A-DC9	A-DC10	A-DC11	A-DC12	A-DC13	A-DC14	A-DC15	A-DC16	A-Ph1	A-Ph2	A-Ph3	A-Ph4	A-Ph5	A-Ph6	A-Ph7	A-Ph8	A-Ph9	A-Ph10	A-Ph11	A-Ph12	A-Ph13	A-Ph14	A-Ph15	A-Ph16	

Term	0.00000e+00	0.00000e+00	0.00000e+00	0.00000e+00	0.00000e+00	0.00000e+00	0.00000e+00	0.00000e+00	0.00000e+00	0.00000e+00	0.00000e+00	0.00000e+00	0.00000e+00	0.00000e+00	0.00000e+00	0.00000e+00	0.00000e+00	0.00000e+00	0.00000e+00	0.00000e+00	0.00000e+00	0.00000e+00	0.00000e+00	0.00000e+00	0.00000e+00	0.00000e+00	0.00000e+00	0.00000e+00	0.00000e+00	0.00000e+00	0.00000e+00	0.00000e+00	3.15399e-03	-3.80650e+00	5.58830e+00	1.14387e+01	1.17516e+01	2.13101e+01	2.75902e+01	2.45481e+01	0.00000e+00	0.00000e+00	0.00000e+00	0.00000e+00	0.00000e+00	0.00000e+00	0.00000e+00	0.00000e+00	
Factor	1.27777e-04	1.30830e-04	1.34402e-04	1.36776e-04	1.23886e-04	1.39607e-04	1.22821e-04	1.28504e-04	6.25000e-02	6.25000e-02	6.25000e-02	6.25000e-02	6.25000e-02	6.25000e-02	6.25000e-02	6.25000e-02	6.43698e-05	6.51214e-05	6.71827e-05	6.84434e-05	6.20655e-05	7.00378e-05	6.14339e-05	6.41803e-05	6.25000e-02	6.25000e-02	6.25000e-02	6.25000e-02	6.25000e-02	6.25000e-02	6.25000e-02	6.25000e-02	X	X	X	X	X	X	X	X	X	X	X	X	X	X	X	X	

B = Detector Channel
Val Type	B-AC1	B-AC2	B-AC3	B-AC4	B-AC5	B-AC6	B-AC7	B-AC8	B-AC9	B-AC10	B-AC11	B-AC12	B-AC13	B-AC14	B-AC15	B-AC16	B-DC1	B-DC2	B-DC3	B-DC4	B-DC5	B-DC6	B-DC7	B-DC8	B-DC9	B-DC10	B-DC11	B-DC12	B-DC13	B-DC14	B-DC15	B-DC16	B-Ph1	B-Ph2	B-Ph3	B-Ph4	B-Ph5	B-Ph6	B-Ph7	B-Ph8	B-Ph9	B-Ph10	B-Ph11	B-Ph12	B-Ph13	B-Ph14	B-Ph15	B-Ph16	

Term	0.00000e+00	0.00000e+00	0.00000e+00	0.00000e+00	0.00000e+00	0.00000e+00	0.00000e+00	0.00000e+00	0.00000e+00	0.00000e+00	0.00000e+00	0.00000e+00	0.00000e+00	0.00000e+00	0.00000e+00	0.00000e+00	0.00000e+00	0.00000e+00	0.00000e+00	0.00000e+00	0.00000e+00	0.00000e+00	0.00000e+00	0.00000e+00	0.00000e+00	0.00000e+00	0.00000e+00	0.00000e+00	0.00000e+00	0.00000e+00	0.00000e+00	0.00000e+00	-7.14493e-03	7.85519e+00	8.95102e+00	1.32098e+01	1.56619e+01	2.06192e+01	2.12602e+01	2.72603e+01	0.00000e+00	0.00000e+00	0.00000e+00	0.00000e+00	0.00000e+00	0.00000e+00	0.00000e+00	0.00000e+00	
Factor	1.36225e-04	1.33428e-04	1.33825e-04	1.34228e-04	1.29929e-04	1.23674e-04	1.22012e-04	1.33082e-04	6.25000e-02	6.25000e-02	6.25000e-02	6.25000e-02	6.25000e-02	6.25000e-02	6.25000e-02	6.25000e-02	6.40597e-05	6.24920e-05	6.30952e-05	6.34479e-05	6.12700e-05	5.84154e-05	5.70530e-05	6.24062e-05	6.25000e-02	6.25000e-02	6.25000e-02	6.25000e-02	6.25000e-02	6.25000e-02	6.25000e-02	6.25000e-02	X	X	X	X	X	X	X	X	X	X	X	X	X	X	X	X	



#DISTANCE SETTINGS
A = Detector Channel
A-1	A-2	A-3	A-4	A-5	A-6	A-7	A-8	A-9	A-10	A-11	A-12	A-13	A-14	A-15	A-16	

1.5000e+00	2.0000e+00	2.5000e+00	3.0000e+00	1.5000e+00	2.0000e+00	2.5000e+00	3.0000e+00	1.5000e+00	2.0000e+00	2.5000e+00	3.0000e+00	1.5000e+00	2.0000e+00	2.5000e+00	3.0000e+00	

B = Detector Channel
B-1	B-2	B-3	B-4	B-5	B-6	B-7	B-8	B-9	B-10	B-11	B-12	B-13	B-14	B-15	B-16	

1.5000e+00	2.0000e+00	2.5000e+00	3.0000e+00	1.5000e+00	2.0000e+00	2.5000e+00	3.0000e+00	1.5000e+00	2.0000e+00	2.5000e+00	3.0000e+00	1.5000e+00	2.0000e+00	2.5000e+00	3.0000e+00	




#DATA BEGINS
time	group	step	mark	flag	A-AC1	A-AC2	A-AC3	A-AC4	A-AC5	A-AC6	A-AC7	A-AC8	A-AC9	A-AC10	A-AC11	A-AC12	A-AC13	A-AC14	A-AC15	A-AC16	A-DC1	A-DC2	A-DC3	A-DC4	A-DC5	A-DC6	A-DC7	A-DC8	A-DC9	A-DC10	A-DC11	A-DC12	A-DC13	A-DC14	A-DC15	A-DC16	A-Ph1	A-Ph2	A-Ph3	A-Ph4	A-Ph5	A-Ph6	A-Ph7	A-Ph8	A-Ph9	A-Ph10	A-Ph11	A-Ph12	A-Ph13	A-Ph14	A-Ph15	A-Ph16	B-AC1	B-AC2	B-AC3	B-AC4	B-AC5	B-AC6	B-AC7	B-AC8	B-AC9	B-AC10	B-AC11	B-AC12	B-AC13	B-AC14	B-AC15	B-AC16	B-DC1	B-DC2	B-DC3	B-DC4	B-DC5	B-DC6	B-DC7	B-DC8	B-DC9	B-DC10	B-DC11	B-DC12	B-DC13	B-DC14	B-DC15	B-DC16	B-Ph1	B-Ph2	B-Ph3	B-Ph4	B-Ph5	B-Ph6	B-Ph7	B-Ph8	B-Ph9	B-Ph10	B-Ph11	B-Ph12	B-Ph13	B-Ph14	B-Ph15	B-Ph16	aux-1	digaux	

212.944	1	1	0	768	0.00070646	0.0020007	0.0021615	0.0023983	0.0015668	0.00092732	0.0026462	0.0017535	0.47776	0.75164	1.3828	0.95858	1.0433	1.0765	0.30178	1.5377	1.1155	1.1264	1.1602	1.1807	1.0683	1.2179	1.0725	1.1233	1096.9	1098.9	1092.8	1092.2	1087	1084.8	1082.9	1081.2	206.055	101.174	344.809	210.839	338.048	210.656	127.366	138.114	119.708	114.310	290.729	264.824	315.573	294.082	238.830	285.526	0.00018263	0.00016778	5.8791e-05	0.00014586	6.7659e-05	5.8539e-05	5.0032e-05	0.00011815	0.032694	0.020858	0.011168	0.029612	0.061659	0.061515	0.075535	0.12622	-0.00076471	-0.00065226	-0.00072954	-0.00068206	-0.00070461	-0.00067908	-0.00064541	-0.00071767	-0.74219	-0.73438	-0.71875	-0.73438	-0.69531	-0.74219	-0.73828	-0.75391	21.248	-74.277	76.646	-98.236	-141.916	42.539	40.642	-122.705	-5.145	169.325	47.755	118.886	-117.027	66.966	-145.062	183.650	-8191	255	
212.944	1	1	0	0	0.0024342	0.0007104	0.0017989	0.00087484	0.00052248	0.0017959	0.002301	0.0014238	0.66955	0.50949	0.56098	0.63219	0.84918	1.2658	2.1885	0.98116	1.112	1.1251	1.1608	1.1846	1.0745	1.2155	1.0655	1.1147	1084.3	1083.5	1082.4	1081.3	1079.1	1075.3	1089	1088.5	341.995	414.378	455.862	405.456	339.405	237.950	265.230	471.224	508.236	207.268	164.551	322.910	164.868	508.284	218.520	463.050	4.4028e-05	0.00010736	5.954e-05	8.6774e-06	0.00013782	0.00014169	4.2889e-05	7.8608e-05	0.04727	0.057711	0.046459	0.022024	0.072502	0.050472	0.031308	0.077217	-0.00070466	-0.00070303	-0.00070588	-0.00070982	-0.00068163	-0.00064622	-0.00062402	-0.00070987	-0.72266	-0.65625	-0.72266	-0.73828	-0.63672	-0.69531	-0.67188	-0.63281	293.923	148.494	355.763	193.210	118.756	473.613	418.988	389.800	355.208	267.240	299.156	218.349	308.814	281.074	367.655	376.546	-8191	255	
212.944	1	1	0	0	0.00089813	0.0017944	0.00051206	0.0087336	0.00037419	0.0030507	0.0012983	0.0014373	0.21989	0.26941	0.46257	0.66995	0.6741	1.1415	0.86221	0.97008	1.1251	1.1419	1.1799	1.2014	1.0835	1.2191	1.0664	1.1116	1081.1	1080.3	1079.4	1082.7	1081.3	1082.7	1083.4	1084.7	198.191	457.601	374.340	289.104	294.164	269.172	389.564	219.819	303.557	185.722	393.700	263.922	364.835	170.943	462.534	449.429	0.0001568	6.7479e-05	2.4316e-05	0.00015253	5.8583e-05	0.00011232	0.00010041	5.6013e-05	0.089079	0.093462	0.016329	0.041755	0.081645	0.021626	0.059451	0.051125	-0.00067663	-0.00068351	-0.00067827	-0.00070586	-0.00063951	-0.00064257	-0.00065967	-0.00067867	-0.66016	-0.67188	-0.66406	-0.67188	-0.66797	-0.67188	-0.6875	-0.6875	293.868	138.898	323.247	335.649	281.597	355.452	156.169	294.669	399.963	295.063	204.644	325.343	289.295	471.177	311.543	251.484	-8191	255	
212.964	1	1	0	0	0.0032274	0.00059963	0.0016414	0.00021576	0.00046146	0.0026731	0.0030934	0.010771	0.75401	0.43006	0.78135	0.4742	0.90457	0.31228	0.62376	0.41546	1.1166	1.1299	1.1653	1.1866	1.074	1.2098	1.0582	1.1085	1088.1	1092.2	1094.9	1099.3	1099.9	1092.3	1089.5	1086.9	504.124	261.010	191.635	511.482	239.906	257.294	301.551	431.771	469.576	471.639	441.633	338.550	506.194	472.824	277.624	184.368	2.2769e-05	4.628e-05	3.3218e-05	0.00015966	8.8188e-05	0.00012306	1.7927e-05	0.00011088	0.017856	0.059776	0.049114	0.060744	0.071408	0.037682	0.078248	0.093867	-0.00069665	-0.0006796	-0.00073742	-0.00073758	-0.00066631	-0.00064257	-0.0005741	-0.00070597	-0.69922	-0.68359	-0.71484	-0.76562	-0.75	-0.70703	-0.70312	-0.75	170.866	429.667	179.105	212.285	417.786	345.492	260.002	415.011	324.532	213.355	420.633	457.710	207.489	158.012	382.527	146.024	-8191	255	
212.964	1	1	0	0	0.0028289	0.0027884	0.00055714	0.0015302	0.0013917	0.0019405	0.0016813	0.0020892	1.1424	0.86666	0.2484	0.56908	0.59842	0.84027	0.70433	0.70938	1.116	1.1278	1.162	1.1815	1.075	1.2121	1.0638	1.1117	1086.1	1084	1084	1085.6	1082.8	1082.7	1080.4	1079.2	269.105	295.385	170.382	464.875	172.995	190.346	175.789	490.739	259.547	288.520	259.887	502.244	174.885	264.334	453.975	508.010	2.6932e-05	0.00011166	0.00012252	0.00011565	3.269e-05	6.5158e-05	0.00022425	9.9628e-05	0.037533	0.025884	0.011412	0.043508	0.03739	0.021107	0.057528	0.035492	-0.00069665	-0.00073819	-0.00071771	-0.00074155	-0.0007429	-0.00069003	-0.00067037	-0.00072937	-0.64062	-0.64844	-0.61719	-0.73828	-0.74219	-0.71875	-0.70703	-0.67969	452.483	388.777	249.581	421.764	272.086	464.629	160.849	464.546	453.961	333.877	453.935	228.821	404.050	228.521	330.400	237.500	-8191	255	
212.964	1	1	0	0	0.00086045	0.0027261	0.0012713	0.0018751	0.0019325	0.0017062	0.0049557	0.00044569	1.1068	1.0508	0.41111	0.24866	0.66666	0.19026	1.3556	0.707	1.1099	1.1349	1.1728	1.1984	1.09	1.2324	1.0756	1.1205	1087.7	1084.8	1081.4	1082.5	1079.5	1081.5	1081.6	1082.3	486.165	269.857	506.388	473.463	480.455	491.704	337.311	215.009	396.219	331.948	334.837	224.306	182.171	167.635	454.241	507.586	8.9393e-05	7.4802e-05	5.9356e-05	0.00012165	3.2193e-05	4.3065e-05	4.9153e-05	0.00014753	0.067276	0.042913	0.01352	0.035073	0.041125	0.015778	0.092087	0.051683	-0.00069665	-0.00066788	-0.00068222	-0.00071775	-0.00071992	-0.00062431	-0.00062402	-0.00065526	-0.70312	-0.67578	-0.71094	-0.64062	-0.60156	-0.63281	-0.67969	-0.65625	385.135	393.362	302.680	375.833	217.817	269.049	170.576	345.990	220.199	115.622	312.026	347.239	218.001	415.407	145.405	414.402	-8191	255	
212.984	1	1	0	0	0.0014637	0.0013736	0.0022191	0.0014553	0.0027396	0.0014658	0.00077508	0.0011135	0.25429	1.8703	7.6336	0.47565	0.46125	0.72147	0.58436	0.79207	1.1151	1.1287	1.1649	1.1863	1.0769	1.2136	1.0645	1.1107	1079.3	1077.1	1085.7	1091.8	1093.4	1096	1099.7	1099.8	494.839	495.485	515.805	490.823	259.385	440.316	257.122	234.577	226.854	351.052	475.950	446.034	447.259	465.738	170.399	206.701	0.00016023	6.5112e-05	5.451e-05	9.4521e-05	8.3281e-05	5.8105e-05	2.0968e-05	0.00010953	0.018052	0.046981	0.058818	0.028032	0.050812	0.046517	0.073171	0.11003	-0.00068864	-0.00069522	-0.00067039	-0.00069396	-0.00067014	-0.00063162	-0.00064898	-0.00069817	-0.73047	-0.69141	-0.69922	-0.69531	-0.71484	-0.71094	-0.71484	-0.74219	273.297	148.946	443.986	395.053	398.644	175.407	141.706	330.870	419.876	445.454	348.966	356.185	429.119	257.532	151.161	348.378	-8191	255	
212.984	1	1	0	0	0.00073825	0.0018742	0.0023936	0.0033219	0.0011283	0.0026826	0.002003	0.0016749	0.8028	0.14423	1.3414	1.1988	2.1127	0.59935	0.96715	2.3389	1.1257	1.1352	1.167	1.1875	1.0731	1.2122	1.0631	1.1119	1083.6	1082.9	1082.8	1085.2	1082	1084.5	1082.8	1082.8	173.022	169.892	309.727	263.086	505.789	493.843	167.048	275.560	453.479	310.757	355.414	517.802	311.458	466.724	510.190	242.807	0.00011226	4.2184e-05	8.7889e-05	0.0001718	0.00016738	0.00012467	5.3348e-05	0.00019656	0.016404	0.082221	0.0076375	0.049539	0.030258	0.039672	0.089663	0.061306	-0.00071266	-0.00068351	-0.00071376	-0.00074948	-0.00072758	-0.00064622	-0.00065967	-0.00069817	-0.75781	-0.69922	-0.70703	-0.71875	-0.67578	-0.66797	-0.69922	-0.75	287.720	156.517	385.561	121.214	190.677	298.878	467.586	406.880	203.717	391.589	266.583	415.913	126.301	171.091	131.780	181.726	-8191	255	
212.985	1	1	0	0	0.0012512	0.0010127	0.00069933	0.0026727	0.001298	0.0017073	0.000341	0.0024018	0.31708	0.33143	0.32807	0.74698	0.87565	1.0955	0.76064	1.0541	1.1146	1.1255	1.16	1.1807	1.082	1.2241	1.077	1.1278	1100.4	1094.5	1091.1	1089.2	1084.1	1082	1082.2	1080.9	472.965	311.210	178.473	261.437	396.451	499.690	253.348	170.726	452.973	248.961	249.142	282.883	205.388	451.166	162.907	295.124	0.00017865	5.7466e-05	0.00016267	0.00015202	5.2266e-05	0.00019297	2.9411e-05	5.8316e-05	0.02441	0.026348	0.069016	0.02507	0.070219	0.072011	0.11571	0.078881	-0.00070065	-0.00071866	-0.00071771	-0.00069396	-0.00073907	-0.00064987	-0.00063471	-0.00066307	-0.69922	-0.63672	-0.69141	-0.65234	-0.69141	-0.65625	-0.69141	-0.73438	391.941	247.298	144.935	218.895	269.426	360.648	142.496	252.673	160.080	425.824	182.046	146.848	282.222	202.445	328.323	269.821	-8191	255	
212.993	1	1	0	0	0.001287	0.0010888	0.00041618	0.0020618	0.0013458	0.00093338	0.00092807	0.00027651	0.62535	0.38782	0.60418	0.5986	1.0336	2.4761	0.45764	0.58207	1.1148	1.1284	1.1634	1.1849	1.0729	1.2134	1.0641	1.1124	1083.5	1082.8	1081.1	1081.3	1077.4	1091.3	1091.7	1095.3	451.100	179.104	241.638	326.137	445.391	346.373	263.028	164.051	478.984	248.251	273.372	375.923	452.655	206.654	480.292	344.104	0.00015003	9.5568e-05	0.0001065	6.7988e-05	6.6476e-05	8.3338e-05	9.2205e-05	9.9611e-05	0.050053	0.043665	0.052593	0.073288	0.0061413	0.016223	0.012628	0.017642	-0.00066062	-0.00071085	-0.0007532	-0.0006781	-0.00071609	-0.00066448	-0.00064898	-0.00064746	-0.71094	-0.68359	-0.71875	-0.6875	-0.71094	-0.6875	-0.66016	-0.69141	133.156	335.896	145.482	156.807	273.559	314.626	269.471	324.977	255.858	117.667	339.677	447.469	401.596	352.097	318.608	244.261	-8191	255	
212.993	1	1	0	0	0.0018154	0.0011001	0.0062145	0.001704	0.00077631	0.00079595	0.0029703	0.0017774	0.71108	0.3826	0.52901	0.44208	0.61763	0.62909	1.5077	1.3397	1.1313	1.1462	1.1816	1.1969	1.0827	1.2174	1.0644	1.1132	1083.2	1083.3	1083.1	1084.6	1082	1080.9	1081.6	1082.3	447.472	258.936	274.144	330.243	255.170	262.905	343.184	179.521	462.894	444.180	406.914	427.449	278.083	243.531	435.433	448.884	4.3869e-05	9.6846e-05	3.8428e-05	6.8308e-05	9.5533e-05	0.00018962	8.8867e-05	0.00017637	0.029441	0.030197	0.022243	0.042435	0.023533	0.040856	0.067571	0.066022	-0.00067263	-0.00071866	-0.00072559	-0.00076931	-0.0006778	-0.00065717	-0.00065254	-0.00076448	-0.71875	-0.73828	-0.71094	-0.78516	-0.74609	-0.70703	-0.69922	-0.73438	185.969	225.683	293.227	318.568	252.068	281.751	317.837	282.774	305.426	374.247	252.588	356.765	132.272	122.425	283.231	118.602	-8191	255	
212.995	1	1	0	0	0.0013397	0.0012911	0.00089018	0.0027805	0.0023139	0.0019449	0.007665	0.00087866	0.87363	0.191	0.37608	0.12607	0.81686	1.0174	0.25234	1.6179	1.1159	1.1282	1.1638	1.1862	1.0732	1.2095	1.0625	1.1196	1094.5	1097.8	1099.3	1102.7	1093.7	1091.4	1086.2	1085.4	196.230	431.488	516.127	312.615	296.298	291.995	443.385	488.374	449.709	325.252	276.167	398.309	289.936	223.709	179.514	175.752	0.00011581	0.00018575	0.00010083	0.00010505	8.7334e-05	2.9134e-05	0.00011535	7.7132e-05	0.021505	0.038763	0.090674	0.030567	0.035159	0.066728	0.062809	0.045315	-0.00072067	-0.00072256	-0.00067039	-0.00071775	-0.00063951	-0.00066448	-0.00065254	-0.00067087	-0.68359	-0.6875	-0.69531	-0.67969	-0.62891	-0.66016	-0.65234	-0.68359	451.068	255.072	455.381	403.352	385.896	369.052	398.404	418.380	421.106	134.757	327.293	451.707	212.142	411.383	370.312	451.493	-8191	255	
213.014	1	1	0	0	0.00052768	0.0011902	0.0042644	0.0030764	0.0011968	0.00052984	0.0010829	0.0014742	3.247	0.39454	1.3572	0.51593	0.29501	0.45279	0.79313	0.93018	1.1166	1.1283	1.1624	1.1866	1.074	1.2117	1.0613	1.1095	1080.7	1081.5	1081.9	1083.7	1082.5	1081.8	1080.6	1078.9	171.289	278.562	429.336	180.683	325.775	339.950	173.544	225.422	230.918	315.803	303.456	339.974	320.106	285.613	333.184	253.161	6.4432e-05	6.9039e-05	9.0668e-05	0.00021969	0.00013926	4.8653e-05	0.00018607	0.00027564	0.094087	0.061242	0.051967	0.0052314	0.094881	0.016384	0.038529	0.086595	-0.00069265	-0.00064054	-0.00069799	-0.00069	-0.00065865	-0.00064257	-0.0005634	-0.00068257	-0.69531	-0.65625	-0.69922	-0.66406	-0.69141	-0.69141	-0.68359	-0.625	382.359	380.962	169.943	438.295	395.566	145.134	244.665	460.789	283.735	316.539	449.073	207.851	416.466	358.122	167.609	251.783	-8191	255	
213.014	1	1	0	0	0.0027002	0.0025075	0.0014281	0.0012708	0.002102	0.0034547	0.0012177	0.002009	1.981	0.23334	0.27266	1.0211	0.57801	1.388	0.31402	0.49937	1.123	1.1393	1.1793	1.2048	1.0935	1.2268	1.074	1.1174	1087.4	1084.6	1084.8	1084.7	1082.7	1081.6	1080.2	1080	300.708	489.204	500.305	192.087	485.115	336.618	256.294	305.000	271.678	378.799	427.925	275.934	439.793	282.649	164.006	239.022	0.00013484	8.8258e-05	1.8434e-05	5.508e-05	8.5541e-05	4.4964e-05	0.00018144	5.9028e-05	0.024871	0.0096499	0.06695	0.062141	0.012121	0.076752	0.01745	0.02353	-0.00069265	-0.00067569	-0.00071771	-0.00076534	-0.00069695	-0.00068638	-0.00065611	-0.00069037	-0.69922	-0.70312	-0.71484	-0.76172	-0.71094	-0.72266	-0.71484	-0.71484	438.770	251.760	413.784	337.141	451.027	306.090	174.486	372.378	415.500	253.251	388.417	336.722	372.801	336.027	186.344	185.922	-8191	255	
213.014	1	1	0	0	0.0008276	0.0010773	0.0010388	0.0027674	0.0026857	0.0015001	0.0003351	0.0026291	0.83144	4.4426	0.89008	0.37878	1.1812	0.73588	3.5398	0.53285	1.1122	1.1242	1.1617	1.1848	1.0747	1.2138	1.064	1.1109	1079	1090.1	1092.9	1097.9	1099.7	1102.1	1101.3	1093.1	219.828	220.438	268.717	384.822	492.235	507.011	199.564	304.689	305.905	167.645	450.350	303.161	477.716	167.694	250.446	366.762	0.00014646	6.2321e-05	4.8417e-05	0.00013303	0.00012991	4.8554e-05	7.4466e-05	7.8387e-05	0.054983	0.029843	0.035762	0.027432	0.053392	0.072045	0.033375	0.016947	-0.00077272	-0.00071475	-0.00072954	-0.00073362	-0.00068929	-0.00063527	-0.00062045	-0.00070987	-0.70703	-0.67578	-0.65234	-0.63281	-0.64062	-0.66406	-0.69922	-0.67578	456.191	382.977	168.229	473.068	154.154	219.650	332.975	385.242	337.706	257.959	412.521	419.698	281.250	151.986	454.780	150.340	-8191	255	
213.034	1	1	0	0	0.0015451	0.00049708	0.00094156	0.0012364	0.00086189	0.0016096	0.0010246	0.0010648	0.31899	0.6162	0.97695	1.362	0.62592	0.75685	0.85671	0.52564	1.1233	1.1352	1.1673	1.1898	1.0763	1.2133	1.063	1.109	1079.7	1078.8	1078.7	1079.4	1081.2	1081.8	1082.2	1082.9	335.109	496.032	378.168	290.501	465.470	177.719	277.982	342.369	443.329	250.860	280.816	391.918	512.163	288.185	515.187	273.083	3.6231e-05	7.0457e-05	8.4699e-05	4.5576e-05	4.0854e-05	0.00010012	1.6027e-05	8.6806e-05	0.056532	0.074172	0.0090031	0.056329	0.025054	0.019603	0.020774	0.11226	-0.0006486	-0.00064445	-0.00069405	-0.00065827	-0.00064716	-0.00064622	-0.00059549	-0.00068647	-0.64453	-0.63672	-0.63281	-0.66797	-0.64062	-0.72656	-0.65625	-0.66406	122.612	464.334	386.336	291.309	146.303	162.724	282.095	377.016	373.585	202.816	179.039	313.991	246.347	291.577	127.146	228.177	-8191	255	
213.034	1	1	0	0	0.0016355	0.0015678	0.0050237	0.0024437	0.0012335	0.0021515	0.00099195	0.00083196	0.2162	0.68479	0.59302	1.3362	0.9847	0.98721	0.35946	0.20463	1.1152	1.1256	1.1627	1.1959	1.0876	1.232	1.0821	1.1326	1093.9	1093.7	1090.9	1089.5	1087.3	1084.4	1082.5	1082.1	192.090	488.757	411.208	448.532	492.636	505.937	517.826	239.094	396.792	176.041	311.478	276.948	212.526	270.260	226.727	511.570	0.00014455	7.0175e-05	7.0815e-05	0.00010759	0.00012748	9.2578e-05	0.00017659	0.00012902	0.032066	0.025284	0.02273	0.072621	0.028556	0.049339	0.0055366	0.035209	-0.00068864	-0.00065617	-0.00069405	-0.00065827	-0.00069695	-0.00065352	-0.00060975	-0.00069037	-0.72656	-0.69141	-0.73047	-0.76172	-0.70312	-0.74219	-0.73828	-0.6875	226.517	194.389	431.713	276.582	237.352	201.317	314.425	309.602	287.254	230.192	379.729	180.592	157.309	327.467	381.514	344.572	-8191	255	
213.034	1	1	0	0	0.0017614	0.00188	0.00053863	0.0005096	0.002076	0.0015602	0.0015379	0.0022719	1.0295	0.85941	1.4776	0.55789	0.22572	0.77437	0.97329	0.24871	1.112	1.1251	1.1596	1.1817	1.0704	1.2105	1.0625	1.1105	1082.3	1082.2	1081.9	1081.9	1092	1094.9	1098.4	1100.6	264.342	296.183	269.235	338.834	238.279	489.150	167.195	489.843	424.151	505.871	223.432	494.174	436.241	446.860	464.613	429.367	7.2433e-05	0.00017611	7.6656e-05	0.00013309	2.8276e-05	7.8287e-05	9.3888e-05	0.00016457	0.086612	0.10127	0.016493	0.044275	0.070883	0.0088334	0.053217	0.075082	-0.00072067	-0.00073819	-0.00072559	-0.0007812	-0.00068546	-0.00064622	-0.00067037	-0.00067087	-0.71094	-0.6875	-0.66406	-0.69922	-0.71094	-0.74609	-0.66406	-0.70703	198.877	342.899	323.307	327.842	278.706	126.273	446.922	335.762	254.804	410.240	325.444	443.671	120.495	283.070	276.540	176.621	-8191	255	
213.034	1	1	0	0	0.0013821	0.0029303	0.0035971	0.00058696	0.0012853	0.0015461	0.0005197	0.0056481	0.65807	0.85952	1.0371	0.52683	0.1967	0.83174	0.84719	0.61479	1.1366	1.1429	1.1785	1.1968	1.0818	1.2184	1.0669	1.1116	1081	1079.8	1078.5	1078.3	1078.2	1077.5	1077	1080.2	172.647	284.611	258.348	256.952	265.047	245.167	415.873	291.158	344.302	292.692	502.696	506.538	172.999	412.292	481.933	279.618	8.6691e-05	9.1958e-05	4.7118e-05	2.2909e-05	6.2513e-05	0.00015468	2.7213e-05	2.8416e-05	0.051492	0.051214	0.071755	0.022344	0.057672	0.025423	0.083408	0.023851	-0.00067263	-0.00068351	-0.00067039	-0.00063844	-0.00067397	-0.00062066	-0.00064185	-0.00063576	-0.67188	-0.66406	-0.62109	-0.64062	-0.63672	-0.67578	-0.66797	-0.68359	438.153	451.815	294.405	334.939	406.450	174.838	393.147	349.801	280.586	338.262	195.280	414.474	279.736	357.262	415.588	241.233	-8191	255	
213.044	1	1	0	0	0.00052828	0.0017273	0.0017622	0.00059623	0.0027622	0.0089872	0.0012965	0.0020905	0.38239	0.53853	2.1166	0.892	0.95543	0.57602	0.47778	0.81609	1.1126	1.1265	1.163	1.1853	1.0736	1.2217	1.075	1.1269	1100.4	1102.5	1102.3	1099.5	1094.8	1091.4	1088.7	1087.6	322.478	452.012	190.336	228.655	451.377	165.574	459.945	485.418	168.548	236.992	252.606	265.664	190.563	260.082	254.207	188.811	7.268e-05	3.8444e-05	6.1829e-05	7.358e-05	0.00020681	6.4342e-05	5.1059e-05	0.00016947	0.029307	0.045779	0.030985	0.03283	0.013537	0.026211	0.052588	0.045414	-0.00066462	-0.00065617	-0.0006625	-0.00068206	-0.00067014	-0.00059876	-0.00060262	-0.00070987	-0.69531	-0.66406	-0.71484	-0.6875	-0.69922	-0.69531	-0.71875	-0.70703	299.331	335.109	389.530	190.396	161.906	206.142	311.154	467.953	370.653	357.735	370.973	362.636	130.119	222.490	350.126	121.677	-8191	255	
213.044	1	1	0	0	0.00098327	0.00068252	0.0025936	0.0021708	0.00093298	0.0013576	0.00016759	0.0026166	0.43788	0.58435	1.2746	0.64076	1.3871	1.4076	2.9892	1.5896	1.1159	1.1265	1.1613	1.1818	1.07	1.2079	1.059	1.1043	1077.8	1079.2	1080.4	1082	1081.8	1081.4	1082.3	1093.4	480.450	339.136	236.194	465.849	348.935	405.692	503.596	460.169	432.905	348.197	496.083	330.966	429.723	248.273	394.587	452.416	9.1968e-05	0.00026418	4.8368e-05	0.00010736	7.5107e-05	6.7857e-05	0.00017878	0.00011179	0.056457	0.024805	0.010213	0.058444	0.047168	0.014722	0.028515	0.025054	-0.00070065	-0.00071866	-0.00071376	-0.00070982	-0.00065099	-0.00066448	-0.00065254	-0.00074107	-0.70703	-0.71094	-0.69531	-0.6875	-0.67578	-0.71484	-0.66406	-0.66406	328.146	352.475	328.606	460.666	194.531	406.141	133.219	281.300	146.973	339.926	380.545	385.384	205.834	410.006	274.116	361.153	-8191	255	
213.044	1	1	0	0	0.0026923	0.0012522	0.0026024	0.00037873	0.00060492	0.00070992	0.0014559	0.0010785	0.52032	0.42383	0.96863	0.75052	0.64348	1.5568	1.1359	1.1311	1.1294	1.1461	1.185	1.2119	1.0919	1.2305	1.0764	1.1196	1087.7	1084.9	1080.8	1082.4	1078.8	1078.5	1076.6	1076.4	504.105	465.104	475.055	204.037	171.816	285.259	271.407	296.933	333.579	268.557	310.258	258.838	462.795	263.261	348.743	509.473	1.0169e-05	0.0001068	9.0602e-05	4.2432e-05	8.4412e-05	5.3913e-05	3.2234e-05	6.5956e-05	0.029846	0.023436	0.037467	0.037995	0.056124	0.018728	0.12923	0.050364	-0.00063259	-0.00069132	-0.00066644	-0.00076137	-0.00068546	-0.00064622	-0.00064898	-0.00064356	-0.65234	-0.69922	-0.64844	-0.64844	-0.73047	-0.64844	-0.64453	-0.67969	179.993	200.094	468.080	342.658	330.530	215.855	216.640	137.469	274.017	234.863	220.209	117.856	184.439	277.915	225.796	266.597	-8191	255	
213.063	1	1	0	0	0.00089324	0.0012638	0.0020215	0.0024025	0.00097989	0.0010193	0.001602	0.0015148	0.85559	0.3927	0.75082	0.45889	0.1752	3.0163	0.44501	0.69544	1.1087	1.1215	1.1588	1.1827	1.0728	1.2118	1.0637	1.1113	1093.5	1094.4	1098.3	1102.9	1106.2	1103.3	1099.3	1097.5	265.628	204.333	521.367	263.509	253.156	479.454	488.774	163.677	251.800	509.254	485.758	515.328	371.211	303.210	217.356	214.144	0.0001989	0.00011797	8.1864e-05	0.00022169	0.00015534	7.552e-05	8.7773e-05	7.5531e-05	0.017906	0.061998	0.047464	0.066774	0.025273	0.02638	0.015	0.028746	-0.00068464	-0.00065617	-0.00064278	-0.00067413	-0.00064334	-0.00061336	-0.00065967	-0.00067087	-0.69922	-0.67578	-0.69531	-0.72266	-0.69531	-0.67578	-0.69922	-0.6875	295.192	458.739	325.002	197.882	154.444	233.932	206.347	389.918	390.345	367.510	275.519	150.930	417.389	442.954	326.816	194.786	-8191	255	
213.063	1	1	0	0	0.0018169	0.0022707	0.0015555	0.0034696	0.0028485	0.001166	0.0021331	0.00047611	0.7277	0.76819	0.66812	0.95978	0.36299	0.13745	0.63063	0.77529	1.1263	1.1347	1.1673	1.1863	1.0738	1.2099	1.0607	1.106	1076.5	1077.1	1076.1	1078.7	1078.5	1078.7	1080.8	1081.5	278.664	234.416	305.239	272.320	257.941	270.107	249.353	271.363	381.970	185.666	180.026	282.940	463.171	423.177	299.271	180.656	0.00011104	9.918e-05	0.00012151	2.5969e-05	0.00011476	6.1647e-05	0.00021303	6.5172e-05	0.059053	0.037273	0.066033	0.014788	0.052409	0.06152	0.068584	0.026903	-0.00067663	-0.00071475	-0.00070193	-0.00072965	-0.00069695	-0.00066448	-0.00064898	-0.00070987	-0.73828	-0.72656	-0.6875	-0.70312	-0.75781	-0.73828	-0.69531	-0.70312	271.778	267.913	390.250	447.915	371.281	354.452	124.356	259.472	281.879	169.380	436.342	305.461	221.460	126.945	120.879	355.637	-8191	255	
213.065	1	1	0	0	0.0024875	0.016591	0.0012221	0.0016248	0.0030981	0.00079498	0.0010445	0.00033729	0.35256	1.1912	0.57096	0.76601	0.52992	0.83938	0.20264	0.98021	1.1134	1.1337	1.1758	1.203	1.0938	1.2395	1.0891	1.1304	1098.4	1094.9	1089.8	1087.2	1084.2	1080.6	1079.9	1078.5	298.460	453.381	344.861	509.724	449.366	208.231	231.967	193.724	196.178	242.351	515.971	278.068	311.641	174.252	203.627	206.368	0.00015299	0.00012882	6.7202e-05	7.9209e-05	0.00013225	0.00023272	8.8621e-05	5.3337e-05	0.066199	0.035479	0.043495	0.076834	0.017966	0.042871	0.061972	0.033271	-0.00063259	-0.00071475	-0.00070588	-0.00069	-0.00065482	-0.00062066	-0.00064541	-0.00069427	-0.71094	-0.67578	-0.71094	-0.67969	-0.61719	-0.66797	-0.69922	-0.67969	246.281	399.699	430.729	266.650	254.089	309.424	290.902	438.490	144.096	220.392	436.270	279.847	124.623	171.550	284.604	285.304	-8191	255	
213.073	1	1	0	0	0.00059955	0.0028766	0.00069215	0.0041002	0.0014738	0.0010642	0.0025084	0.001143	0.94454	0.90902	1.1306	0.51072	1.5207	0.77957	0.89716	0.44729	1.109	1.1215	1.1559	1.1763	1.0691	1.2058	1.0598	1.1084	1079.9	1080.9	1081.9	1094.1	1097.1	1102.8	1106.7	1108.7	295.949	469.856	327.537	359.495	517.315	437.998	181.360	493.032	180.444	164.178	495.339	301.801	446.194	182.640	173.597	467.699	1.8038e-05	0.0001645	0.00011978	6.0714e-05	0.000199	3.1104e-05	9.4409e-05	0.00016422	0.012429	0.018235	0.05549	0.039915	0.10152	0.0065568	0.037135	0.007542	-0.00065661	-0.00064445	-0.00069799	-0.00066224	-0.00067397	-0.00062066	-0.00060975	-0.00067867	-0.71094	-0.69531	-0.71094	-0.67188	-0.6875	-0.66406	-0.70312	-0.69922	238.138	446.871	402.196	414.393	371.156	188.523	311.932	193.786	330.814	298.488	291.200	461.746	303.850	286.866	244.341	386.685	-8191	255	
213.073	1	1	0	0	0.00048156	0.0022901	0.0012719	0.0020845	0.00062535	0.0017841	0.0022244	0.00069398	0.39429	0.40608	1.102	0.33253	0.2011	1.0069	1.1524	1.2642	1.1354	1.1468	1.1786	1.1969	1.0804	1.2158	1.0628	1.1107	1078.6	1078.1	1077	1077.4	1076	1076	1075.6	1076.7	307.947	239.792	299.270	302.856	248.511	217.308	359.851	508.289	452.616	291.304	292.184	379.769	410.833	483.070	192.014	456.524	0.00010292	4.465e-05	8.7484e-05	8.952e-05	2.4211e-05	9.4021e-05	0.00020655	8.2565e-05	0.044883	0.047309	0.057102	0.043678	0.048121	0.031516	0.047504	0.087049	-0.00066062	-0.00070303	-0.00074137	-0.00069396	-0.00071609	-0.00067908	-0.00064541	-0.00075277	-0.71094	-0.69531	-0.67969	-0.71875	-0.69531	-0.73047	-0.72266	-0.73828	271.905	455.136	270.680	418.018	392.990	259.937	289.294	468.438	205.972	226.272	436.133	306.093	150.724	132.069	238.205	128.179	-8191	255	
213.075	1	1	0	0	0.00096095	0.001068	0.0032662	0.0035223	0.0031518	0.0022735	0.0022151	0.0018205	0.58753	3.4882	0.13748	0.85786	1.0961	1.0097	0.66142	0.71311	1.1104	1.1252	1.1617	1.1833	1.0866	1.2281	1.0832	1.1367	1108.4	1107.1	1102.6	1098.7	1093.9	1089.8	1086.3	1082.6	495.421	167.166	456.711	469.394	293.148	454.810	195.004	198.029	436.952	300.797	192.335	311.682	263.393	208.068	303.345	485.506	0.00013753	3.4808e-05	6.7517e-05	2.9085e-05	3.8066e-05	2.9035e-05	0.00015387	3.1884e-05	0.062361	0.038078	0.032687	0.058155	0.052042	0.023041	0.042026	0.077931	-0.00072868	-0.00073428	-0.00073742	-0.00072569	-0.00069695	-0.00066448	-0.00065611	-0.00069427	-0.6875	-0.66797	-0.66016	-0.68359	-0.67578	-0.73047	-0.68359	-0.73438	195.019	467.891	439.187	342.227	241.099	389.819	256.580	203.915	389.643	439.933	116.803	298.853	345.204	318.469	232.953	277.925	-8191	255	
213.094	1	1	0	0	0.0011703	0.00083208	0.00033314	0.00085397	0.00044179	0.00022601	0.0010524	0.00072639	0.18535	0.356	0.55539	0.16038	1.0683	6.7682	1.4843	1.1738	1.1146	1.1242	1.1591	1.1802	1.0688	1.2058	1.0561	1.1046	1075.8	1077.8	1078.8	1081.3	1079.9	1087.3	1095.1	1101.2	264.708	270.723	301.329	489.302	168.627	237.905	221.036	237.660	514.848	217.027	449.242	174.176	298.312	436.825	460.065	479.223	9.9984e-05	0.00010184	0.00014216	9.5567e-05	0.00017563	8.3384e-05	0.00011011	9.0018e-05	0.045355	0.064516	0.020988	0.033064	0.031886	0.097841	0.044915	0.032813	-0.00067263	-0.00064054	-0.00069799	-0.00070982	-0.00063951	-0.00059511	-0.00062402	-0.00067477	-0.67969	-0.69531	-0.65234	-0.64844	-0.70312	-0.71094	-0.72266	-0.71875	384.286	259.427	275.049	389.079	254.222	335.559	294.703	354.236	451.118	386.353	140.011	211.420	351.166	248.922	193.840	203.826	-8191	255	
213.094	1	1	0	0	0.00058406	0.0022195	0.00067356	0.0012243	0.0014017	0.0016267	0.0018039	0.00036978	0.68305	1.2677	0.64408	0.36137	0.68149	1.2322	1.1414	1.775	1.1383	1.1554	1.195	1.2082	1.0916	1.2277	1.0731	1.1173	1085	1081.6	1080.9	1081	1077.5	1076.6	1076.6	1073.9	434.538	489.105	517.958	249.174	243.889	321.597	358.097	299.444	267.994	469.352	241.798	287.724	477.703	365.480	449.058	285.857	0.00013373	0.00011487	0.00012138	9.7526e-05	0.00015464	8.8409e-05	0.00011323	0.00011473	0.020932	0.020902	0.040709	0.05613	0.039566	0.026241	0.03182	0.080842	-0.00070466	-0.00066788	-0.00067433	-0.00072172	-0.00068163	-0.00060971	-0.00062758	-0.00070597	-0.72266	-0.67969	-0.71875	-0.74219	-0.75781	-0.6875	-0.66797	-0.79688	126.642	254.573	258.437	315.114	329.060	302.824	468.349	393.408	280.157	440.447	233.896	142.857	163.259	249.900	223.716	449.677	-8191	255	
213.094	1	1	0	0	0.001751	0.0013	0.0032212	0.001105	0.00098367	0.001927	0.0014726	0.0018849	0.55067	0.91057	0.29253	0.6215	0.80766	1.0867	0.82245	0.89711	1.1084	1.1198	1.1562	1.1812	1.0717	1.2107	1.063	1.1252	1099.6	1104.4	1109	1112.5	1103.8	1101.2	1095.9	1092.5	474.179	377.234	450.948	356.401	168.115	268.172	179.338	425.441	508.474	514.778	201.188	406.575	363.664	302.493	376.361	284.925	6.9557e-05	9.5726e-05	0.00010264	8.8882e-05	0.00017332	0.00010071	0.00016967	9.7626e-05	0.058346	0.02484	0.042761	0.012031	0.048036	0.060456	0.076937	0.048081	-0.00072067	-0.00068741	-0.00070193	-0.00071775	-0.00072758	-0.00068273	-0.00065611	-0.00070597	-0.71094	-0.73047	-0.70703	-0.73828	-0.72266	-0.72656	-0.70312	-0.70312	305.913	401.589	148.239	333.224	242.172	405.133	132.806	218.615	233.864	202.500	263.712	195.646	438.970	145.969	456.354	219.057	-8191	255	
213.114	1	1	0	0	0.0022371	0.00050588	0.00292	0.0011111	0.0012186	0.0013156	0.0014418	0.00096456	0.16365	0.057993	0.61756	0.30465	0.9834	0.66828	0.31768	1.5775	1.1216	1.1316	1.1629	1.1836	1.0727	1.208	1.0588	1.1047	1075	1074.5	1074.6	1075.3	1077.4	1078.1	1079.2	1078.6	353.745	215.510	257.004	431.303	505.291	185.563	255.561	276.617	248.831	389.314	495.223	438.923	516.055	511.606	405.809	488.651	0.00010006	4.4513e-05	3.742e-05	0.00013397	0.0001997	0.00017469	0.00011856	0.00013914	0.048819	0.077055	0.03085	0.043123	0.045838	0.062456	0.064538	0.036105	-0.00069265	-0.00069913	-0.00068222	-0.00074948	-0.00067014	-0.00060606	-0.00060262	-0.00067867	-0.66016	-0.65234	-0.69141	-0.69531	-0.58594	-0.64453	-0.60156	-0.67969	273.056	134.031	187.648	234.881	342.867	175.600	194.057	154.589	364.746	463.035	328.352	212.534	408.359	444.170	427.405	415.968	-8191	255	
213.114	1	1	0	0	0.0033141	0.0021404	0.0019865	0.0021527	0.0010807	0.007576	0.0012062	0.0014325	0.60629	0.58569	0.71168	0.93346	0.14727	0.17523	0.76712	0.36603	1.1284	1.1447	1.1858	1.2133	1.1029	1.2421	1.0829	1.1273	1094.1	1089.8	1087.5	1086	1082.8	1080.3	1078.1	1077.9	198.542	502.578	451.501	439.143	520.894	265.475	328.777	305.027	211.324	274.429	277.358	287.432	272.315	277.722	386.423	470.213	0.00013751	8.1417e-05	5.7685e-05	3.368e-05	0.00013713	5.8279e-05	8.8528e-05	7.0687e-05	0.031385	0.11127	0.013532	0.058153	0.042565	0.042872	0.074159	0.039216	-0.00071266	-0.00069913	-0.00071771	-0.00065431	-0.00067397	-0.00059146	-0.00065967	-0.00072547	-0.67578	-0.70312	-0.70703	-0.73438	-0.67578	-0.67578	-0.73047	-0.70703	279.036	193.058	283.947	458.307	311.766	466.730	409.865	433.448	163.222	123.539	302.236	465.289	454.786	406.326	355.467	285.104	-8191	255	
213.114	1	1	0	0	0.0013915	0.00078404	0.0031229	0.0031809	0.00045492	0.00073606	0.00087471	0.0011141	1.8139	2.1885	0.82085	0.99517	0.11083	0.87573	0.64031	0.12737	1.1082	1.1202	1.1544	1.1778	1.0671	1.2042	1.0593	1.1067	1079.3	1084.4	1097.1	1102.9	1107.1	1109.6	1110.7	1102.2	308.012	447.924	460.403	292.172	485.550	187.138	220.185	174.681	494.909	425.299	431.652	472.497	441.356	178.155	431.774	345.148	0.00010978	0.00020159	7.7311e-05	3.6991e-05	9.9691e-05	7.262e-05	0.0001657	0.00012736	0.027004	0.04222	0.0211	0.0085645	0.035452	0.017505	0.036874	0.052992	-0.00068063	-0.00073037	-0.00073348	-0.00076931	-0.00071226	-0.00072289	-0.00058836	-0.00073717	-0.6875	-0.69531	-0.74219	-0.66406	-0.65625	-0.71484	-0.67188	-0.71875	301.243	370.215	198.233	224.366	393.064	131.462	473.340	471.740	181.889	466.159	472.343	187.372	346.370	418.867	333.392	453.878	-8191	255	
213.114	1	1	0	0	0.0035425	0.0026348	0.0024304	0.0015103	0.0018385	0.0017004	0.0025903	0.00067923	0.64131	0.30104	0.40907	0.57245	0.48606	0.57919	0.5693	1.6237	1.1326	1.1421	1.1736	1.1934	1.0784	1.2134	1.0643	1.1082	1079.2	1077.2	1076.1	1076.7	1073.9	1074.9	1074.1	1075.3	300.011	270.148	282.544	267.827	485.335	382.681	205.588	257.448	513.748	516.269	409.633	213.897	393.993	494.033	239.509	482.804	6.6759e-05	8.4133e-05	0.00011534	0.0002267	9.1342e-06	7.0644e-05	2.645e-05	0.00014674	0.024015	0.039025	0.05898	0.047082	0.026265	0.024381	0.055033	0.061782	-0.00068464	-0.00066398	-0.00071376	-0.0006781	-0.00068929	-0.0005659	-0.00064541	-0.00063966	-0.68359	-0.66016	-0.62891	-0.66016	-0.64453	-0.69141	-0.70312	-0.69922	271.957	237.565	122.938	358.179	464.331	239.287	436.133	175.625	469.349	127.395	413.542	248.354	234.028	448.951	130.684	262.712	-8191	255	
213.124	1	1	0	0	0.0011722	0.0013376	0.0018756	0.0026422	0.0027446	0.0022133	0.00080847	0.0014832	1.6672	1.1079	0.7433	0.14489	0.92687	0.42347	1.1678	0.78096	1.1092	1.1249	1.1632	1.2008	1.093	1.2382	1.0886	1.1396	1103.9	1100.6	1097	1094.1	1090	1087.2	1084.8	1082.8	183.874	378.979	500.870	394.087	466.603	491.023	194.567	483.859	325.724	285.369	245.326	460.490	304.300	516.193	249.506	227.679	9.7472e-06	4.335e-05	7.5423e-05	7.2464e-05	0.00013046	9.2968e-05	2.7251e-05	0.00013431	0.074395	0.028369	0.064085	0.021779	0.031024	0.066517	0.076387	0.031399	-0.00068063	-0.00068351	-0.00068222	-0.00071775	-0.0006127	-0.00065352	-0.00063115	-0.00073327	-0.68359	-0.69531	-0.67969	-0.71484	-0.6875	-0.67969	-0.72656	-0.70312	188.269	273.210	326.881	238.628	384.481	398.382	242.635	377.796	375.973	201.820	263.408	118.931	254.944	144.346	205.753	349.456	-8191	255	
213.124	1	1	0	0	0.00097342	0.0015147	0.0013381	0.0011451	0.0010731	0.0019348	0.00079229	0.0014925	0.14857	0.44811	0.74498	0.88802	7.7197	0.92707	1.5245	0.44449	1.1133	1.1242	1.1584	1.1811	1.0683	1.2054	1.0566	1.1035	1075.3	1077.4	1080	1083	1093.2	1099.4	1104.5	1106.6	323.906	298.169	360.899	257.011	354.820	521.481	251.568	401.424	396.994	463.937	510.410	392.649	489.274	475.411	445.469	516.969	4.7521e-05	0.00014149	8.1125e-05	7.8239e-05	0.00016829	6.7077e-05	8.9476e-05	6.4869e-05	0.038757	0.01091	0.016843	0.04424	0.045164	0.025896	0.038126	0.075673	-0.00072868	-0.00070303	-0.00070982	-0.00069793	-0.00071609	-0.00071194	-0.00067037	-0.00075667	-0.67969	-0.69922	-0.73828	-0.71484	-0.72656	-0.72266	-0.71875	-0.67188	446.585	258.196	436.824	318.430	268.277	201.763	171.129	226.836	152.662	187.623	244.441	169.538	291.002	310.059	340.842	281.954	-8191	255	
213.125	1	1	0	0	0.0019014	0.0020064	0.0014353	0.0011972	0.00071801	0.00087788	0.0010838	0.0025652	1.0967	0.63283	0.26126	0.6042	0.57596	0.49	1.1426	0.96956	1.1424	1.1567	1.1849	1.2038	1.0881	1.2238	1.0695	1.1154	1083.7	1082.8	1080.6	1078.9	1077.8	1076.4	1074.8	1075.3	480.359	202.225	193.745	415.992	213.624	301.692	258.353	324.936	172.286	310.806	188.095	304.758	254.559	327.411	311.499	245.372	0.00015596	5.492e-05	1.2586e-05	2.9719e-05	4.526e-05	0.0001039	0.00020113	7.9989e-05	0.068483	0.026675	0.048887	0.032135	0.020164	0.016796	0.064022	0.010693	-0.00072468	-0.00067179	-0.00068222	-0.0006781	-0.00069312	-0.00066448	-0.00068107	-0.00071767	-0.66406	-0.64844	-0.64844	-0.71094	-0.63672	-0.66797	-0.66406	-0.6875	175.518	338.343	229.622	337.886	418.050	240.782	387.887	359.680	131.363	383.099	213.909	231.050	339.759	446.821	128.317	211.675	-8191	255	
213.143	1	1	0	0	0.0014162	0.0016376	0.0018623	0.0025184	0.0019318	0.00039584	0.002042	0.0011798	0.40377	0.566	0.3878	0.42037	1.2702	0.30859	0.20883	0.89381	1.1073	1.1184	1.1568	1.1826	1.0738	1.2135	1.0784	1.1314	1104.5	1107.9	1108.9	1104.3	1100.4	1097	1093.9	1090.3	343.298	255.378	465.247	484.496	494.013	228.198	479.250	177.120	438.257	472.615	172.150	319.638	219.017	179.441	396.051	435.479	9.0392e-05	0.00010513	3.0808e-05	0.00010471	4.1439e-05	7.1114e-05	0.00012306	4.7828e-05	0.015546	0.078745	0.033835	0.038987	0.017413	0.028004	0.063102	0.07994	-0.00066862	-0.00066007	-0.00070588	-0.00073362	-0.00067014	-0.0005805	-0.00060619	-0.00066697	-0.625	-0.64453	-0.67188	-0.71094	-0.63672	-0.73828	-0.70703	-0.71094	432.355	121.391	360.924	281.413	242.111	319.369	224.755	309.423	229.345	165.378	128.919	286.480	301.225	267.146	291.956	117.194	-8191	255	
213.143	1	1	0	0	0.0017099	0.00423	0.0040525	0.00086387	0.00097399	0.00070989	0.00077043	0.001047	0.41071	1.0909	0.36398	1.3147	0.67233	0.41729	0.98831	2.436	1.1206	1.1294	1.1658	1.1855	1.0725	1.2077	1.0588	1.1061	1076.2	1074.6	1074.6	1077.6	1079.7	1081.4	1082.2	1097.7	235.031	289.047	455.037	257.791	251.157	316.052	408.992	247.215	521.630	424.062	470.687	278.716	518.924	476.590	497.145	229.880	6.7094e-05	9.7185e-05	5.8858e-05	6.2907e-06	0.00015507	0.00010461	9.2018e-05	0.00012399	0.062739	0.082364	0.035721	0.026583	0.056613	0.066095	0.076688	0.035312	-0.00073268	-0.00070303	-0.00073348	-0.00072569	-0.00064716	-0.00069003	-0.00062045	-0.00070597	-0.70703	-0.76172	-0.71875	-0.69531	-0.72656	-0.67578	-0.6875	-0.75391	175.899	403.418	339.822	193.210	290.611	343.952	418.385	441.459	281.718	263.935	231.970	302.001	246.463	319.063	455.216	189.500	-8191	255	
213.145	1	1	0	0	0.0022936	0.0024601	0.0016684	0.0013023	0.0068292	0.0010885	0.00081249	0.0012243	1.1165	0.28435	0.38088	0.65203	0.89509	0.90881	0.47453	1.019	1.1323	1.1502	1.189	1.2149	1.0995	1.2343	1.0801	1.1241	1092.4	1089.4	1087.1	1085.9	1082.4	1082.3	1080.6	1079.1	464.972	502.655	423.045	415.665	284.299	258.310	351.918	358.934	301.791	450.668	271.142	337.398	182.224	182.444	248.542	193.590	3.6381e-05	8.8291e-05	0.00016853	0.00012631	4.8974e-05	3.148e-05	9.2422e-05	0.00012563	0.013148	0.063962	0.023631	0.036377	0.04709	0.055557	0.063089	0.065027	-0.00072468	-0.00076162	-0.00070588	-0.00072569	-0.00066631	-0.00068273	-0.00064185	-0.00077228	-0.6875	-0.71094	-0.66406	-0.69531	-0.66406	-0.65625	-0.66016	-0.67969	185.816	322.418	364.355	377.148	152.617	264.200	283.519	273.594	212.935	411.071	363.224	320.030	437.409	165.801	133.920	139.594	-8191	255	
213.164	1	1	0	0	0.0018254	0.0012492	0.0008481	0.0018496	0.0020053	0.0016485	0.001109	0.00069845	9.1306	0.63217	1.0013	0.18334	0.28791	0.94802	0.026885	0.71851	1.1095	1.1202	1.1576	1.1772	1.0697	1.2084	1.0613	1.1099	1089.4	1096.9	1102.4	1106.6	1108	1110.3	1101.9	1099.9	437.466	477.267	221.050	274.162	502.978	507.371	497.455	439.365	445.869	444.899	454.836	310.263	461.233	485.995	308.960	237.181	0.00017567	9.3672e-05	0.00013099	6.3145e-05	6.7756e-05	0.00010547	7.196e-05	0.00014792	0.015314	0.040583	0.013449	0.021128	0.043069	0.030916	0.046801	0.046508	-0.00068864	-0.00067179	-0.00072165	-0.00066224	-0.0006778	-0.00063527	-0.00064898	-0.00070987	-0.625	-0.67188	-0.69141	-0.64453	-0.67578	-0.63672	-0.70312	-0.64453	168.814	187.973	140.503	358.082	317.548	330.641	269.288	176.816	325.382	470.732	392.458	276.060	459.222	131.753	173.089	358.575	-8191	255	
213.164	1	1	0	0	0.0018784	0.0011595	0.00025452	0.00077158	0.00043832	0.0026256	0.0030395	0.0015109	0.55468	0.056498	1.2437	0.16278	1.6877	0.82148	0.84564	1.0547	1.1288	1.1384	1.172	1.1925	1.0774	1.2146	1.064	1.1103	1079.5	1077.9	1076.1	1078.3	1077.4	1078.3	1078.5	1079.6	433.452	333.062	190.358	314.505	165.861	308.984	423.042	271.801	220.493	332.303	267.811	514.312	514.016	274.585	512.565	456.513	0.00018279	0.00015663	0.00011302	0.00021116	0.00011158	6.3372e-05	0.00014388	7.0717e-05	0.063462	0.029567	0.10158	0.049191	0.016806	0.034085	0.026233	0.041676	-0.00069265	-0.00067569	-0.00070982	-0.00069	-0.00068929	-0.00063527	-0.00065254	-0.00069037	-0.70703	-0.69141	-0.72656	-0.73438	-0.76172	-0.75	-0.69922	-0.70312	360.304	412.955	428.978	410.119	456.318	273.727	437.445	411.331	399.976	370.930	438.804	453.734	411.698	457.287	231.212	167.359	-8191	255	
213.164	1	1	0	0	0.0012171	0.0015646	0.0011537	0.0021545	0.0020673	0.00035396	0.00085589	0.0016146	0.62951	0.5427	0.47635	0.44872	0.71193	1.9303	0.17235	0.37825	1.114	1.1274	1.1768	1.204	1.0956	1.2397	1.0889	1.1319	1100.3	1096.6	1094.3	1091.7	1088.4	1085.3	1084.8	1083.1	246.738	175.685	331.531	463.462	504.506	215.169	178.412	334.838	162.323	342.392	226.150	503.882	181.428	289.055	359.713	474.672	0.00010584	0.00014017	0.00015501	7.1142e-05	3.7047e-05	9.6102e-05	4.3156e-05	5.6893e-05	0.084503	0.019145	0.063163	0.021108	0.02207	0.021913	0.05212	0.0076885	-0.00069665	-0.00066398	-0.00067827	-0.00072569	-0.00068929	-0.00067543	-0.00065967	-0.00074107	-0.71484	-0.71094	-0.69922	-0.71875	-0.65234	-0.69531	-0.6875	-0.70703	169.162	255.173	425.078	125.264	283.062	127.596	465.682	394.217	440.260	126.016	346.875	116.407	411.936	252.579	360.100	184.803	-8191	255	
213.174	1	1	0	0	0.00015356	0.0014391	0.0025748	0.0019365	0.00033459	0.00087558	0.0013826	0.00043325	0.31265	0.37355	2.0606	3.717	0.48152	0.47046	0.69748	1.3515	1.1142	1.1262	1.1586	1.1804	1.069	1.2086	1.0599	1.1069	1078.7	1081.4	1079.4	1095.3	1096	1101.2	1105.5	1106.8	405.286	288.385	306.455	278.731	184.481	303.280	455.185	270.068	167.362	165.006	449.065	176.142	471.964	422.413	443.461	443.036	0.00017868	3.8862e-05	0.0001491	0.00013396	0.00015394	0.00010492	0.00013853	0.00011273	0.094496	0.051932	0.0024617	0.045824	0.056971	0.072253	0.078234	0.11854	-0.00066062	-0.00069132	-0.00068616	-0.00069	-0.00069312	-0.00068273	-0.00058123	-0.00064746	-0.66406	-0.64062	-0.6875	-0.71484	-0.64062	-0.69141	-0.58203	-0.67188	148.394	296.375	304.526	287.182	125.350	257.674	245.932	279.088	417.250	342.893	180.000	320.793	116.203	132.352	124.767	232.136	-8191	255	
213.174	1	1	0	0	0.00495	0.00094264	0.0016492	0.0018406	0.0024868	0.0011481	0.0010088	0.0015016	0.28198	1.1755	1.1696	0.21634	0.32503	1.4867	0.5123	0.40501	1.1401	1.1468	1.1804	1.1996	1.0847	1.2213	1.0692	1.1155	1084.4	1082.2	1082.1	1081.6	1079.3	1076.2	1080.3	1079.4	256.738	416.952	363.499	312.537	356.446	296.069	482.114	199.211	298.050	333.608	478.582	364.078	368.411	462.913	212.937	466.480	5.7482e-05	0.00011415	9.9341e-05	7.3091e-05	3.9476e-05	5.7112e-05	0.00010701	9.11e-05	0.057014	0.082495	0.05021	0.020244	0.027063	0.03783	0.063372	0.083761	-0.00066062	-0.00071085	-0.00063884	-0.00069	-0.00070078	-0.00062431	-0.00065611	-0.00066697	-0.73438	-0.66016	-0.72266	-0.71875	-0.66016	-0.67969	-0.69141	-0.71094	367.264	188.492	329.898	224.996	343.527	250.329	232.656	207.447	277.850	357.752	471.821	461.961	209.893	339.090	372.084	202.357	-8191	255	
213.174	1	1	0	0	0.0012881	0.0012279	0.0018855	0.0021253	0.0050358	0.0014005	0.0019208	0.0019064	0.15238	0.76641	0.72085	0.80507	0.59369	0.93581	0.89639	1.7491	1.1119	1.1258	1.1613	1.1835	1.0751	1.2254	1.081	1.1332	1106.3	1108.4	1101.2	1100.8	1096.2	1093.7	1091	1087.7	363.078	467.996	181.922	206.985	420.897	486.111	479.043	520.438	468.856	484.727	428.416	358.570	425.916	262.183	188.225	312.536	9.0307e-05	0.00011305	5.6934e-05	5.953e-05	4.5165e-05	7.3628e-05	8.7348e-05	0.00016669	0.040328	0.032022	0.019269	0.021715	0.075369	0.027354	0.081658	0.085247	-0.00066462	-0.00072647	-0.00065856	-0.00067017	-0.00067014	-0.00070098	-0.00062402	-0.00078788	-0.69531	-0.69531	-0.77734	-0.73828	-0.65625	-0.73438	-0.70312	-0.67188	143.015	266.058	322.645	152.715	455.102	355.726	134.164	413.371	158.011	339.613	263.067	181.018	358.117	145.227	402.481	463.993	-8191	255	
213.194	1	1	0	0	0.0011594	0.0011826	0.00078118	0.0023822	0.0033359	0.0017113	0.0022456	0.0022568	0.58893	0.48943	0.4287	0.31581	1.1928	0.8105	1.7333	1.0849	1.1183	1.1307	1.1641	1.1856	1.0735	1.2101	1.0602	1.1084	1079.1	1079.7	1080.1	1080.6	1079	1079.1	1093.3	1096.7	422.570	515.976	229.222	180.972	204.118	358.291	199.670	333.910	202.655	322.829	164.804	353.140	484.900	262.592	299.274	456.212	5.9621e-05	0.00020793	0.00010926	7.3291e-05	2.791e-05	5.3774e-05	6.4346e-05	3.8189e-05	0.054715	0.033709	0.029546	0.043789	0.053982	0.050778	0.042119	0.026747	-0.00065661	-0.0006796	-0.00070982	-0.00068206	-0.00075822	-0.00060606	-0.00059549	-0.00066307	-0.73828	-0.66406	-0.64844	-0.65234	-0.66406	-0.67188	-0.66797	-0.70703	463.774	423.475	121.777	446.503	182.833	256.089	400.007	182.808	127.420	179.408	437.813	129.642	256.360	120.060	286.548	451.783	-8191	255	
213.194	1	1	0	0	0.0022071	0.0011685	0.00078655	0.0061013	0.00044098	0.00043965	0.0011969	0.0020154	0.38274	1.7687	0.69483	0.76118	0.32162	0.1311	1.1347	0.37476	1.134	1.1517	1.1903	1.2091	1.0923	1.2293	1.0755	1.1205	1089.4	1088.1	1086.3	1086.3	1083.5	1082.2	1080.6	1082	502.979	510.674	463.651	308.626	333.712	394.913	237.753	393.236	278.349	237.083	265.189	280.019	252.718	507.974	376.344	220.886	2.5392e-05	0.00016379	0.00019469	6.9496e-05	0.00011272	0.00013704	3.404e-05	0.00017434	0.065275	0.042167	0.031974	0.017331	0.1053	0.036806	0.058165	0.022728	-0.00065661	-0.00071475	-0.00067827	-0.00065827	-0.00068929	-0.00063162	-0.00060975	-0.00065136	-0.69531	-0.67188	-0.67969	-0.66406	-0.68359	-0.68359	-0.70312	-0.6875	245.538	407.652	432.178	261.763	439.654	397.846	280.497	264.430	184.092	420.583	394.582	221.989	308.082	174.509	205.616	122.233	-8191	255	
213.195	1	1	0	0	0.0026452	0.0025302	0.000821	0.001154	0.001088	0.001565	0.0021093	0.016611	1.6153	1.5841	1.0385	0.039485	0.61105	0.55034	1.0478	1.2811	1.1138	1.1268	1.1627	1.1844	1.0723	1.2099	1.0603	1.1172	1094.6	1099.1	1103.9	1108.1	1108.7	1101.5	1098.4	1095.8	178.792	251.409	450.748	359.436	267.073	189.034	339.505	482.473	468.068	414.633	467.679	229.730	187.021	521.345	278.671	259.703	5.198e-05	3.6025e-05	8.6995e-05	0.00010023	4.7204e-05	8.9042e-05	1.3823e-05	0.00018827	0.049117	0.03776	0.031543	0.036757	0.068029	0.096578	0.028761	0.0019841	-0.00068464	-0.00069522	-0.00066644	-0.00073758	-0.00069695	-0.00073749	-0.00063115	-0.00070597	-0.6875	-0.68359	-0.74219	-0.70312	-0.73438	-0.72266	-0.67969	-0.71875	420.994	301.342	473.806	226.585	294.359	317.599	270.286	420.471	459.570	308.106	121.573	364.357	233.958	256.959	190.434	180.000	-8191	255	
213.195	1	1	0	0	0.0019525	0.00081987	0.0014447	0.0012164	0.0014105	0.0018452	0.0013607	0.00083336	0.62379	1.143	0.23057	0.49638	0.30996	0.76839	0.44822	0.8076	1.1256	1.1368	1.1712	1.1892	1.0786	1.2155	1.0647	1.1118	1082.6	1081.9	1082.3	1083.5	1082.1	1080	1078.6	1078.1	510.785	313.287	268.155	462.775	507.247	225.569	285.234	496.785	438.972	337.566	466.243	306.564	471.958	505.373	520.114	477.688	0.00017818	8.3507e-05	5.5232e-05	4.6261e-05	6.4985e-05	0.00011613	2.2763e-05	8.3021e-05	0.079539	0.043086	0.041637	0.029334	0.032351	0.053863	0.0047363	0.046576	-0.00066862	-0.0006796	-0.00067039	-0.00074948	-0.00069312	-0.00063892	-0.00063828	-0.00067477	-0.67578	-0.65625	-0.67188	-0.65625	-0.68359	-0.70703	-0.62109	-0.68359	133.806	380.667	130.117	457.670	148.737	453.359	350.409	300.830	142.129	272.067	141.913	163.463	134.305	173.372	207.148	275.903	-8191	255	
213.213	1	1	0	0	0.0016671	0.0010611	0.0015304	0.0013027	0.0021562	0.0024502	0.00066976	0.0012168	0.89234	1.0372	0.13446	0.3276	2.2336	1.2493	0.45913	0.56596	1.1113	1.1382	1.1788	1.2063	1.0974	1.2406	1.0825	1.1286	1096.6	1092.8	1091.5	1090.4	1086.2	1086.5	1084.6	1083.5	514.708	340.796	482.376	438.538	509.409	481.321	391.768	242.979	273.246	304.566	198.608	382.313	277.929	463.559	354.213	267.178	8.788e-05	0.00014355	0.00017523	6.6581e-05	0.00010387	2.3454e-05	0.00010054	0.00012483	0.061701	0.04508	0.044839	0.032901	0.025127	0.039539	0.04883	0.095898	-0.00072868	-0.00065226	-0.0006901	-0.00069	-0.00069312	-0.00063162	-0.00062045	-0.00067867	-0.67578	-0.69922	-0.67969	-0.69531	-0.73438	-0.68359	-0.69141	-0.69922	123.665	196.435	249.437	434.087	276.777	181.512	165.263	261.104	396.153	360.115	266.236	191.345	463.162	196.206	471.320	406.578	-8191	255	
213.213	1	1	0	0	0.0023495	0.00047033	0.0015114	0.00068704	0.0016083	0.0018932	0.00070458	0.0010824	0.77191	1.7404	2.8844	0.42585	1.2324	0.93602	1.5544	3.1282	1.1158	1.1298	1.1653	1.1872	1.0755	1.2122	1.062	1.1086	1077.4	1077.9	1091.9	1095.2	1099.1	1104	1107.6	1106	481.118	486.206	319.295	407.884	441.959	305.651	303.688	508.687	320.786	473.073	175.252	447.969	455.903	466.907	520.879	240.324	0.00015777	0.00010992	4.126e-05	0.00011331	0.00011034	0.00015426	2.8056e-05	7.9997e-05	0.015268	0.005268	0.025259	0.037536	0.036021	0.056561	0.052053	0.080954	-0.0006486	-0.0006796	-0.00073742	-0.00070586	-0.00064716	-0.00068273	-0.00061332	-0.00077228	-0.69531	-0.71094	-0.72266	-0.70312	-0.70312	-0.65234	-0.78125	-0.69922	382.133	348.474	404.878	470.790	142.614	451.114	170.619	456.199	206.670	461.005	164.887	283.657	340.750	200.132	319.220	444.885	-8191	255	
213.215	1	1	0	0	0.0014174	0.0012015	0.0010967	0.0010133	0.0022458	0.0012328	0.0016524	0.0012656	0.95673	0.31264	0.67446	0.5859	1.0651	1.4397	0.66564	0.86426	1.133	1.1428	1.1766	1.1963	1.0823	1.2198	1.069	1.1148	1083.8	1085.3	1084.8	1086.2	1083.5	1085.8	1082.7	1080.9	515.686	329.958	200.186	263.457	250.431	247.399	291.938	375.414	408.203	458.192	308.037	419.394	401.231	237.563	257.834	202.946	7.8563e-06	6.7675e-05	0.00015027	5.3641e-05	5.3535e-05	6.6765e-05	3.1584e-05	6.4386e-05	0.0078331	0.077201	0.068744	0.073107	0.022038	0.083849	0.040977	0.051951	-0.00073669	-0.00076943	-0.00074531	-0.00069396	-0.00067397	-0.00064987	-0.00058479	-0.00070987	-0.70312	-0.64844	-0.64062	-0.70703	-0.69141	-0.6875	-0.71875	-0.65234	179.993	424.332	185.326	151.211	384.661	161.956	116.235	311.455	393.822	402.315	450.701	402.190	459.705	123.354	198.219	298.009	-8191	255	
213.223	1	1	0	0	0.0018437	0.00084812	0.002804	0.0079419	0.0025545	0.0018748	0.0017094	0.00041961	0.62859	0.66928	0.45743	0.84884	0.39443	0.60959	0.18698	1.1046	1.1117	1.1237	1.1579	1.1835	1.0839	1.2286	1.0827	1.135	1107.6	1100.5	1098.3	1096.1	1092.7	1090.2	1088.9	1086	207.314	249.970	265.811	407.491	438.816	485.955	188.909	227.226	460.582	217.528	293.214	318.102	322.307	411.255	496.316	442.520	3.6208e-05	5.6011e-05	0.00023033	0.00015455	0.00017622	8.2143e-05	0.00013022	4.7258e-05	0.026355	0.054611	0.0068124	0.051276	0.025642	0.024461	0.025588	0.035086	-0.0006406	-0.00067179	-0.00068616	-0.00067413	-0.00067397	-0.00062431	-0.00064898	-0.00070597	-0.65234	-0.65234	-0.66016	-0.64062	-0.66797	-0.62109	-0.66797	-0.64062	414.498	440.053	302.134	126.703	457.050	357.859	391.650	125.032	227.926	157.439	462.306	284.791	149.260	244.848	197.997	149.889	-8191	255	
213.223	1	1	0	0	0.0016941	0.00023098	0.00097637	0.00030213	0.0011177	0.00308	0.0013589	0.0022204	0.89368	0.51755	0.11036	0.76623	0.57659	0.7305	1.7415	0.42289	1.1188	1.1313	1.1675	1.1907	1.0791	1.2162	1.0676	1.1125	1082.2	1080.5	1079.3	1081	1077.1	1092.9	1095.7	1100.9	186.397	421.543	387.893	310.717	469.294	283.658	280.754	291.627	320.575	321.703	513.534	216.350	431.453	279.714	465.034	177.563	9.6343e-05	0.00018429	0.00018907	6.8539e-05	6.8374e-05	0.00019223	0.00018821	6.5773e-05	0.03642	0.062227	0.072106	0.014158	0.041363	0.077934	0.034102	0.055284	-0.00070065	-0.0006796	-0.00068222	-0.00069793	-0.00067014	-0.00065352	-0.00065254	-0.00074887	-0.74219	-0.75391	-0.71875	-0.72266	-0.67578	-0.76953	-0.71484	-0.69141	382.041	401.384	285.514	400.286	177.309	423.856	390.681	366.122	461.859	315.374	454.507	288.283	336.380	419.758	419.886	148.960	-8191	255	
213.225	1	1	0	0	0.0012599	0.001867	0.0030743	0.00078589	0.0018468	0.00052235	0.00081491	0.00073577	1.4319	0.9409	1.4724	0.92293	0.87364	0.63499	0.2506	0.85099	1.1386	1.1537	1.1853	1.2052	1.0894	1.226	1.0732	1.1193	1087.5	1087.6	1088	1089.2	1088.3	1088.3	1087.3	1085.8	505.061	491.043	319.119	418.248	242.867	378.379	309.361	386.865	255.065	503.660	511.576	485.963	167.378	166.272	219.187	317.983	9.6034e-05	0.00011496	3.8771e-05	5.8677e-05	0.00012512	3.6282e-05	0.00013054	0.00012098	0.01315	0.0317	0.013111	0.0084788	0.033765	0.024531	0.026745	0.05202	-0.00073268	-0.00072647	-0.00072165	-0.00070189	-0.00073524	-0.00066813	-0.00064541	-0.00074887	-0.67578	-0.71094	-0.67578	-0.71094	-0.69922	-0.71094	-0.70312	-0.65234	276.916	242.000	339.857	379.094	307.549	191.637	342.587	142.068	346.493	296.491	366.358	267.060	228.467	446.253	419.240	227.521	-8191	255	
213.244	1	1	0	0	0.0014082	0.0012265	0.00061048	0.0012812	0.0016024	0.000651	0.014812	0.00094	1.1134	1.2204	1.2697	2.3727	0.22698	0.1446	0.77964	0.3465	1.1157	1.1283	1.1622	1.1834	1.0708	1.2055	1.0734	1.1223	1099.4	1102.6	1106.5	1108.8	1100.1	1097.5	1094	1091.4	275.653	172.025	255.047	246.153	475.565	418.773	185.180	503.006	460.966	459.814	475.335	239.377	366.185	511.158	299.056	242.120	0.00013311	0.00014379	4.4215e-05	0.00013041	8.1575e-05	7.0727e-05	0.00017611	0.00019837	0.064038	0.045992	0.037667	0.045309	0.046497	0.014727	0.076132	0.026338	-0.00065261	-0.00067569	-0.00072165	-0.0006781	-0.00068163	-0.00064622	-0.00061689	-0.00069037	-0.6875	-0.64453	-0.66406	-0.6875	-0.69531	-0.6875	-0.60156	-0.6875	450.028	412.436	230.125	320.145	359.757	433.547	271.061	183.080	296.642	323.942	382.787	266.467	238.625	134.394	307.917	449.368	-8191	255	
213.244	1	1	0	0	0.00031558	0.0019043	0.001048	0.00096595	0.0011938	0.0038753	0.0012726	0.0013679	0.73809	0.74014	0.20366	0.32189	0.36991	0.80616	0.75444	2.2898	1.1225	1.1333	1.1684	1.1929	1.0805	1.22	1.0697	1.1165	1084.1	1085.2	1083.1	1083.1	1080.6	1079.4	1077.6	1079.5	356.311	294.319	487.488	398.083	482.321	479.743	357.887	492.942	368.457	220.445	266.752	274.723	332.949	169.195	263.962	416.293	9.7774e-05	5.5299e-05	0.00012626	4.9488e-05	6.2682e-05	0.00014342	0.00017042	0.00011928	0.028277	0.046507	0.053364	0.021162	0.060247	0.015613	0.013405	0.036348	-0.00068864	-0.00069522	-0.00066644	-0.00067017	-0.00070078	-0.00062797	-0.00062402	-0.00070597	-0.68359	-0.67969	-0.66797	-0.66797	-0.71875	-0.69922	-0.78125	-0.71484	209.641	313.601	350.515	122.538	166.067	464.662	300.056	250.863	296.858	156.693	427.250	439.571	396.742	267.033	342.095	236.599	-8191	255	
213.244	1	1	0	0	0.0023397	0.0018918	0.0025378	0.0010361	0.0011131	0.0010209	0.0012902	0.0019522	0.76474	0.33059	0.76816	1.6978	0.84899	0.46461	1.1908	0.3692	1.1251	1.1431	1.1836	1.2115	1.1	1.233	1.0802	1.1241	1092.4	1090.6	1088.5	1087.7	1089.8	1089.5	1090	1088.8	420.351	462.465	509.812	427.756	472.940	400.157	396.751	384.271	244.484	454.153	197.728	385.438	518.258	261.134	258.708	170.124	0.00015365	1.1502e-05	3.3655e-05	5.2263e-05	6.3764e-05	7.6665e-05	8.821e-05	6.8452e-05	0.032098	0.09236	0.025173	0.12178	0.025649	0.036871	0.029168	0.022114	-0.00065261	-0.00073428	-0.00070588	-0.00072965	-0.00069695	-0.00067543	-0.00062758	-0.00074887	-0.72656	-0.71484	-0.67969	-0.6875	-0.72266	-0.74609	-0.72266	-0.6875	307.845	384.491	125.281	144.905	327.389	192.110	173.705	399.315	411.967	310.882	265.580	321.072	342.728	118.137	253.457	299.069	-8191	255	
213.254	1	1	0	0	0.0035309	0.0010394	0.00098817	0.00095615	0.0014575	0.0011122	0.0013504	0.0016998	1.1872	1.2149	1.1373	0.84943	0.85187	1.0456	2.4249	0.95196	1.122	1.1313	1.1664	1.1872	1.075	1.2121	1.0612	1.1081	1077.1	1091.6	1095.3	1101	1104.3	1106.8	1103.1	1099	520.350	174.869	245.366	408.713	503.696	516.210	500.475	258.425	473.706	358.068	504.467	455.432	473.345	498.075	319.528	279.710	5.7127e-05	5.3589e-05	0.00013716	0.00017101	3.4583e-05	6.3774e-05	7.8092e-05	0.00018782	0.083076	0.018226	0.063648	0.033409	0.0888	0.048667	0.023853	0.066867	-0.00070065	-0.00075772	-0.00070588	-0.00069793	-0.00063568	-0.00064987	-0.00061689	-0.00066697	-0.69141	-0.67578	-0.67188	-0.70312	-0.67578	-0.69141	-0.65625	-0.70703	292.314	410.860	152.116	367.908	472.559	249.876	386.839	224.427	198.268	441.667	401.275	398.615	260.813	325.689	346.143	374.753	-8191	255	
213.254	1	1	0	0	0.0017734	0.0022254	0.0016343	0.0013779	0.0022827	0.0024467	0.00094125	0.0022719	0.24021	1.1474	0.43291	0.29947	0.9737	0.51426	0.73465	0.44398	1.1287	1.139	1.1715	1.1927	1.0817	1.2211	1.0707	1.1189	1089.9	1089.2	1086.4	1087	1083.1	1083.7	1082.2	1080.4	181.805	288.360	435.545	251.537	222.450	474.047	319.276	374.007	461.141	519.254	189.939	454.005	295.868	186.988	491.075	458.475	0.00014673	3.6614e-05	7.9828e-05	5.7922e-05	7.0375e-05	0.00010463	0.00015043	0.0001738	0.040752	0.045581	0.032698	0.01726	0.070574	0.047949	0.048443	0.049208	-0.00068464	-0.00067569	-0.0006349	-0.00066224	-0.00071609	-0.00065352	-0.00060975	-0.00069427	-0.66406	-0.66406	-0.64844	-0.69531	-0.72266	-0.70312	-0.73047	-0.69922	392.481	397.209	279.739	181.693	321.791	148.553	398.942	144.660	359.291	200.268	294.340	329.140	267.895	287.480	441.922	329.065	-8191	255	
213.254	1	1	0	0	0.00018227	0.0015689	0.019691	0.001723	0.0022267	0.0013382	0.0010427	0.0031494	0.66267	0.92645	0.77849	1.0025	1.1578	0.80218	0.78326	1.5971	1.1126	1.1222	1.1686	1.1978	1.0906	1.2357	1.0876	1.1377	1100.2	1096.8	1093.7	1092.4	1089.6	1090.6	1089.7	1090.3	246.060	363.939	488.167	459.280	498.588	489.737	497.186	255.341	205.357	298.372	272.870	256.876	275.465	213.719	169.000	351.347	0.00012972	0.00010075	4.0616e-05	3.0842e-05	5.5053e-05	2.2087e-05	5.1549e-05	0.00018918	0.065128	0.048037	0.062893	0.0099451	0.08526	0.045352	0.024966	0.092373	-0.00071667	-0.00069522	-0.00069405	-0.00072569	-0.00067014	-0.00067543	-0.00065967	-0.00070597	-0.72656	-0.67578	-0.76953	-0.67578	-0.75	-0.72656	-0.71484	-0.71484	138.580	376.421	460.649	339.411	317.613	128.798	344.271	343.001	222.203	371.524	360.609	331.156	453.315	160.128	265.517	284.073	-8191	255	
213.274	1	1	0	0	0.0013598	0.00077278	0.00050303	0.0019884	0.00056815	0.0014055	0.001312	0.001118	0.50141	0.16312	0.83333	0.94583	0.29569	0.60074	0.51445	0.52803	1.1225	1.1357	1.1701	1.1911	1.0778	1.2166	1.065	1.1116	1081.9	1080.7	1079.5	1080.1	1089.8	1097	1100.9	1104.7	245.834	405.085	352.877	257.085	188.336	187.201	258.523	276.726	297.567	500.323	184.688	325.766	467.895	470.386	473.353	390.785	0.00017555	1.6407e-05	0.00014443	7.5612e-05	8.6111e-05	9.3309e-05	2.9162e-05	1.9767e-05	0.033783	0.066378	0.064316	0.042467	0.022191	0.05386	0.074804	0.037028	-0.00072868	-0.00069132	-0.00071376	-0.00078517	-0.00071226	-0.00065717	-0.00066324	-0.00066307	-0.67188	-0.67188	-0.66406	-0.70703	-0.69141	-0.70703	-0.67188	-0.63672	344.206	217.612	148.292	234.957	124.187	280.532	285.333	459.755	282.764	246.173	390.151	426.083	444.600	284.337	351.634	199.838	-8191	255	
213.274	1	1	0	0	0.0018031	0.0016927	0.0011099	0.0013002	0.00080377	0.00081524	0.0023182	0.0017077	0.82073	0.23188	1.3355	0.75537	0.85771	1.203	0.77269	0.55475	1.1405	1.1475	1.1814	1.1988	1.0835	1.2216	1.0712	1.1175	1089.9	1089.1	1090.1	1089.7	1087.1	1086.4	1085.2	1083.9	480.849	506.766	298.455	348.811	167.304	465.602	190.658	387.117	468.026	475.765	480.109	334.251	263.362	205.440	250.900	450.751	6.5529e-05	7.1577e-05	0.00014464	6.808e-05	6.9412e-05	0.00014722	9.4163e-05	9.3286e-05	0.045723	0.012546	0.056391	0.039335	0.031588	0.039873	0.053988	0.019054	-0.00068063	-0.00071475	-0.00066644	-0.0006781	-0.00069695	-0.00060241	-0.00062045	-0.00065917	-0.63281	-0.64062	-0.69141	-0.73438	-0.70703	-0.68359	-0.63281	-0.66406	428.432	336.639	436.382	120.529	454.014	237.478	387.709	120.260	174.797	402.376	237.756	291.986	430.468	135.571	140.262	132.016	-8191	255	
213.275	1	1	0	0	0.0012333	0.0033027	0.0015288	0.0020273	0.0021808	0.0040879	0.0045366	0.0015771	1.0442	0.82468	2.8261	0.71199	0.38058	1.2445	0.17275	0.16744	1.1152	1.1285	1.1612	1.1838	1.0716	1.2237	1.0761	1.1291	1104.1	1107.2	1105.5	1102.8	1096.7	1093.1	1092.5	1091.5	407.251	196.967	173.376	258.766	475.390	305.200	517.341	474.511	481.174	162.581	277.976	285.228	274.338	277.741	506.669	306.049	9.3802e-05	8.9374e-05	0.00022254	7.9421e-05	6.1381e-05	7.3844e-05	2.5583e-05	8.6191e-05	0.025799	0.063349	0.019256	0.066414	0.047837	0.060931	0.07586	0.046259	-0.00069265	-0.00068741	-0.00074926	-0.00072569	-0.00071992	-0.00067543	-0.00061332	-0.00070987	-0.71094	-0.69141	-0.71484	-0.73438	-0.70703	-0.72656	-0.67969	-0.73828	413.023	281.342	323.591	376.209	397.413	319.391	420.440	446.066	181.631	293.672	364.629	319.516	175.575	179.626	131.299	472.673	-8191	255	
213.275	1	1	0	0	0.0014187	0.00064717	0.00095386	0.0019724	0.0017	0.0026611	0.0013228	0.001787	1.1439	0.5594	0.52129	0.30872	0.41397	1.538	7.3795	0.76071	1.124	1.137	1.1724	1.1941	1.0811	1.219	1.0677	1.1145	1085.8	1083.6	1082.8	1083	1081.6	1078.9	1083.9	1091.6	244.058	504.080	265.067	372.505	373.797	343.097	216.333	510.144	276.585	209.257	305.068	324.784	490.370	275.359	427.914	442.016	6.5163e-05	3.3559e-05	3.659e-05	0.00014324	5.3602e-05	3.6283e-05	8.0994e-05	3.2341e-05	0.0048256	0.0097111	0.038631	0.02558	0.01804	0.016683	0.078419	0.019307	-0.0006406	-0.00069132	-0.00074531	-0.00068603	-0.00068546	-0.00066448	-0.00062045	-0.00070207	-0.71094	-0.72266	-0.71875	-0.67969	-0.66406	-0.67188	-0.67188	-0.70703	411.364	307.656	141.434	461.336	412.801	142.658	445.694	176.723	180.000	410.230	187.909	473.291	308.196	364.015	224.284	196.880	-8191	255	
213.293	1	1	0	0	0.0017284	0.0023379	0.0015697	0.0014387	0.0011898	0.0014062	0.0015392	0.0015289	0.39723	0.6375	0.81557	1.1829	0.13378	0.094887	0.41757	0.16344	1.1306	1.149	1.1883	1.2151	1.0932	1.2302	1.0763	1.122	1092	1091.2	1089.1	1092.2	1088.6	1088	1086.8	1086.4	407.834	469.848	478.157	453.472	500.525	284.575	269.871	411.427	500.926	503.017	460.664	266.622	398.510	312.761	481.307	419.457	8.7424e-05	0.0001959	4.5101e-05	5.9937e-05	0.00012619	9.9892e-05	0.00010073	6.1621e-05	0.012156	0.087571	0.05109	0.10522	0.013982	0.024449	0.070133	0.047709	-0.00070065	-0.00070694	-0.00069799	-0.00070586	-0.00064716	-0.00061336	-0.00061332	-0.00069427	-0.67188	-0.66406	-0.65625	-0.63281	-0.67188	-0.66016	-0.71484	-0.69531	183.686	269.770	242.564	272.522	454.682	164.551	207.850	115.709	114.646	228.525	127.780	408.123	225.773	276.443	369.654	457.071	-8191	255	
213.293	1	1	0	0	0.0024609	0.0013994	0.0025151	0.0013217	0.00095988	0.0010385	0.00046735	0.001726	0.77511	1.5134	1.1142	0.67291	0.90026	0.66672	1.0982	1.3303	1.1175	1.1303	1.1653	1.1872	1.0746	1.2119	1.0624	1.1094	1091.7	1095.3	1100.2	1105.7	1107.8	1102.1	1100.9	1096.7	287.311	427.927	250.406	211.420	349.392	186.510	273.691	520.684	294.623	447.374	448.105	502.850	467.201	341.098	288.113	415.447	0.00012663	0.00016746	9.2896e-05	9.0206e-05	6.5527e-05	6.9415e-05	5.0138e-05	0.00026118	0.025423	0.035696	0.028649	0.021798	0.030839	0.079012	0.056534	0.040456	-0.00069265	-0.00071085	-0.00072165	-0.00070982	-0.00069695	-0.00061701	-0.00064185	-0.00067867	-0.72656	-0.69531	-0.70703	-0.70312	-0.70703	-0.77734	-0.71875	-0.71484	408.392	309.870	168.206	207.125	319.834	332.362	155.601	351.552	420.589	172.461	354.571	291.304	120.798	133.849	145.326	379.705	-8191	255	
213.295	1	1	0	0	0.0032824	0.0024989	0.00058501	0.0037529	0.00075174	0.0011815	0.0014806	0.0009819	0.4182	0.45486	0.43189	0.83813	1.0512	0.37026	0.99037	0.36012	1.1274	1.1393	1.1733	1.1947	1.0831	1.2197	1.0696	1.1161	1086.4	1086.1	1084.5	1086.3	1083.6	1081.8	1082	1082	282.598	483.216	380.232	292.222	458.637	425.743	278.512	207.844	178.284	483.019	215.277	312.554	246.330	407.433	304.796	207.864	0.00016043	0.00018629	0.00019454	8.8486e-05	0.00013092	9.85e-05	6.3927e-05	0.00016675	0.083584	0.031246	0.047138	0.015702	0.040897	0.029583	0.075353	0.062626	-0.00069265	-0.00070303	-0.00070982	-0.00072569	-0.0007429	-0.00064257	-0.00063828	-0.00071767	-0.71875	-0.66797	-0.65625	-0.67188	-0.72656	-0.69141	-0.67969	-0.67969	392.326	150.107	315.346	292.738	120.799	139.475	160.785	278.514	254.338	332.484	388.503	385.943	243.947	365.091	179.385	166.915	-8191	255	
213.303	1	1	0	0	0.0026227	0.012966	0.0027521	0.0019749	0.0011267	0.0013842	0.0044827	0.0015107	1.5175	0.7242	1.185	1.3976	1.0156	0.19937	0.8497	0.49909	1.1115	1.1352	1.1753	1.2043	1.0951	1.2402	1.0889	1.1313	1100.1	1096.1	1095.5	1094	1091.5	1089.4	1088.5	1087.3	478.473	490.026	456.291	501.639	453.021	189.127	269.602	175.014	245.739	351.039	230.053	296.344	519.625	451.420	291.904	214.715	6.5613e-05	0.00017072	4.7462e-05	9.7871e-05	0.00010164	0.00010836	8.1046e-05	0.00019875	0.042063	0.02748	0.038263	0.049906	0.04392	0.042569	0.083778	0.029205	-0.00070065	-0.00069522	-0.00072165	-0.00069	-0.00068163	-0.00062066	-0.00060619	-0.00070207	-0.67578	-0.65625	-0.66797	-0.66797	-0.71094	-0.66016	-0.6875	-0.64453	300.103	296.544	427.478	168.405	220.793	434.924	153.355	163.300	235.948	223.343	372.857	214.087	400.914	276.505	265.274	204.543	-8191	255	
213.305	1	1	0	0	0.0006498	0.00084762	0.00042306	0.0014091	0.0014188	0.0027287	0.0013343	0.0016018	0.6924	1.186	0.98084	0.24472	1.0484	0.78728	0.19048	0.94951	1.1189	1.1311	1.1664	1.1869	1.0776	1.2142	1.0655	1.1115	1082.1	1081.4	1080.4	1094.4	1096.4	1102.1	1105.1	1108.6	184.837	171.633	403.481	384.961	491.886	251.599	272.122	244.956	466.686	204.937	326.972	462.630	490.745	514.020	470.341	458.990	7.5339e-05	9.9447e-05	3.2489e-05	0.00010091	6.2994e-05	5.5237e-05	1.2566e-06	0.00012995	0.045887	0.089237	0.071419	0.093624	0.02669	0.026068	0.046793	0.014548	-0.00069265	-0.00068741	-0.00071771	-0.00069793	-0.0006778	-0.00060971	-0.00065254	-0.00066307	-0.71094	-0.70703	-0.71484	-0.71484	-0.69531	-0.75	-0.63672	-0.66016	118.179	395.072	271.074	403.996	220.209	336.435	201.260	295.847	197.126	328.033	275.312	407.644	282.287	288.008	293.584	164.968	-8191	255	
213.305	1	1	0	0	0.00074924	0.0023422	0.0029809	0.001662	0.00096903	0.00072589	0.0019258	0.00026526	0.50209	0.39356	0.58238	0.85693	1.1136	0.47864	1.0568	0.69373	1.1349	1.1485	1.1819	1.2007	1.0868	1.2243	1.0695	1.1186	1087.1	1086.2	1085.8	1087.1	1084.7	1085.3	1084.1	1083.6	258.728	280.344	256.228	331.482	276.014	225.689	343.342	277.171	500.539	439.398	214.528	294.051	509.228	234.557	321.379	173.998	0.00014743	0.00014197	0.00016592	7.937e-05	6.4788e-05	8.4494e-05	0.00011325	0.00012262	0.089554	0.035427	0.016899	0.032335	0.024861	0.055266	0.025639	0.018167	-0.00066462	-0.00073428	-0.0007532	-0.00072172	-0.00071609	-0.00063527	-0.0006775	-0.00069427	-0.76172	-0.71875	-0.73438	-0.73828	-0.68359	-0.73828	-0.75	-0.67188	244.595	387.871	165.128	329.748	329.547	126.019	257.780	341.759	140.795	119.922	136.987	457.617	301.772	251.253	306.307	406.590	-8191	255	
213.324	1	1	0	0	0.0024796	0.00055507	0.0017933	0.0012892	0.004307	0.0028316	0.0028478	0.0017612	0.29348	1.7671	0.33198	0.58849	0.37342	1.0931	0.91839	0.15754	1.1147	1.1276	1.1625	1.1837	1.0861	1.2263	1.0821	1.1337	1107	1107.8	1103.8	1103.8	1097.8	1095.1	1092.8	1089.3	208.865	371.985	299.307	221.656	266.547	496.628	521.503	495.936	314.032	290.239	261.411	222.688	227.644	284.427	496.856	162.183	0.00027808	0.0001125	0.00012542	0.00013243	3.6414e-05	0.00011952	0.00011772	0.00014986	0.025023	0.054687	0.068793	0.028261	0.10892	0.019878	0.017875	0.058798	-0.00069665	-0.00073819	-0.00069405	-0.00073362	-0.00066631	-0.00063892	-0.00061332	-0.00064356	-0.65234	-0.67578	-0.72656	-0.63281	-0.66797	-0.66016	-0.71875	-0.66016	266.036	131.637	246.622	170.504	201.508	404.660	334.896	407.696	229.446	261.665	145.802	450.406	193.879	145.219	366.454	434.382	-8191	255	
213.324	1	1	0	0	0.0015906	0.001603	0.0019267	0.000505	0.0013555	0.0026837	0.0014189	0.0024839	0.73783	0.92813	0.60194	1.1622	1.2194	7.1623	0.9618	0.85677	1.1215	1.133	1.1671	1.1891	1.0767	1.2159	1.065	1.1142	1083.6	1084.5	1083.1	1083.3	1081.4	1086.6	1093.4	1097.9	303.293	249.712	163.077	321.920	350.640	297.871	508.750	299.473	241.638	198.187	261.088	327.795	310.812	440.109	483.299	465.171	0.00011319	0.00010482	8.4072e-05	0.00017034	9.7562e-05	0.00022865	0.00011683	6.6357e-05	0.045523	0.05344	0.073253	0.052507	0.016892	0.037994	0.0097038	0.043583	-0.00069665	-0.00069132	-0.00067827	-0.00065827	-0.00063951	-0.00064257	-0.00063828	-0.00069817	-0.71094	-0.71484	-0.68359	-0.6875	-0.68359	-0.70703	-0.72266	-0.72266	456.809	268.065	273.382	144.906	462.992	387.726	403.348	404.255	452.898	145.631	271.810	237.224	181.143	459.914	231.279	375.371	-8191	255	
213.324	1	1	0	0	0.00077675	0.0011455	0.0019643	0.00206	0.00067343	0.0023773	0.0021061	0.0027186	0.83445	0.68695	0.32609	0.52224	0.85651	0.4749	0.27119	1.4812	1.1369	1.1538	1.1948	1.211	1.0964	1.2323	1.0779	1.1224	1091.3	1087.6	1087.4	1087.4	1084.5	1083.9	1084.4	1082.7	462.699	168.882	486.784	323.703	492.298	344.903	272.659	317.703	518.156	490.719	376.790	273.239	425.947	298.929	519.789	296.401	0.00013498	7.2397e-05	9.8325e-05	5.4057e-05	1.0361e-05	8.0919e-05	9.0817e-05	0.00011767	0.052737	0.01151	0.01014	0.060225	0.042736	0.074925	0.013476	0.073708	-0.0006486	-0.00068741	-0.00070588	-0.00068206	-0.00072758	-0.00068638	-0.00061332	-0.00072547	-0.71875	-0.72656	-0.71875	-0.74609	-0.71875	-0.66016	-0.6875	-0.69531	236.711	471.401	225.690	356.038	195.662	408.645	326.110	168.372	271.474	320.642	352.261	159.056	137.337	417.300	375.281	383.109	-8191	255	
213.344	1	1	0	0	0.00076071	0.001333	0.0011927	0.00061759	0.0018207	0.0018359	0.0014032	0.0015695	1.453	1.3846	1.067	0.63547	0.70772	0.41156	0.75723	0.5251	1.1171	1.1297	1.1645	1.186	1.0746	1.2115	1.0625	1.1224	1096.5	1101.2	1106.4	1112.5	1105.9	1105.2	1102.5	1098.5	182.474	166.831	235.075	264.708	179.980	186.403	501.106	397.110	468.535	451.768	491.280	378.850	296.340	308.121	283.829	240.486	0.00025094	0.00012815	0.00018712	0.00015676	5.3092e-05	0.00012836	7.9611e-05	0.00021474	0.016619	0.039898	0.071556	0.043142	0.025677	0.041566	0.028704	0.0271	-0.00072868	-0.00069522	-0.00071771	-0.00074948	-0.00071226	-0.00063892	-0.00068107	-0.00070987	-0.71484	-0.68359	-0.70312	-0.67188	-0.72266	-0.65625	-0.69922	-0.63672	179.180	152.848	198.274	415.137	363.654	387.690	152.223	225.761	150.395	407.934	257.911	394.755	275.113	332.052	429.694	119.481	-8191	255	
213.344	1	1	0	0	0.00056813	0.0021496	0.0046856	0.00042923	0.00097878	0.00079828	0.00078328	0.001347	0.22307	0.23019	0.40516	1.3272	0.66248	0.85015	1.186	1.0915	1.126	1.1377	1.1684	1.1909	1.078	1.2149	1.066	1.1129	1083.7	1083.4	1083.5	1084.8	1083.4	1083.1	1082.1	1080.7	200.108	189.322	307.434	196.619	322.748	490.837	283.952	195.252	270.784	255.846	260.567	300.755	476.311	443.599	386.921	453.231	0.00020305	5.9144e-05	0.00017896	9.1049e-05	0.00019523	3.7984e-05	0.00025525	4.0269e-05	0.031236	0.036659	0.031155	0.022866	0.039112	0.02285	0.030156	0.026148	-0.00063659	-0.00068351	-0.00065856	-0.00064638	-0.0006127	-0.00060606	-0.0005634	-0.00069817	-0.70703	-0.67578	-0.63672	-0.71484	-0.71094	-0.68359	-0.71875	-0.71484	143.884	232.177	132.824	440.355	150.199	210.359	367.541	386.514	363.651	418.113	140.249	326.998	416.731	411.016	187.809	305.803	-8191	255	
213.345	1	1	0	0	0.0029615	0.0024373	0.0027319	0.0031147	0.00032023	0.0073426	0.00016071	0.000284	1.8063	1.0934	0.75647	1.8078	0.61751	0.33244	1.0006	0.5466	1.1264	1.1416	1.182	1.2131	1.1035	1.2456	1.0874	1.1343	1100	1096.1	1092.1	1091.2	1087.2	1086.1	1084.5	1084.4	213.039	478.238	492.192	498.240	434.474	289.451	434.677	448.995	283.355	291.058	311.315	275.352	301.634	493.269	289.596	407.081	0.00010029	2.6339e-05	0.00022073	7.0848e-05	4.9915e-05	5.5774e-05	9.1621e-05	6.3533e-05	0.070686	0.064999	0.005915	0.023473	0.024842	0.020807	0.022249	0.0042327	-0.00063659	-0.00063664	-0.00070982	-0.00075344	-0.00070078	-0.00068273	-0.00060975	-0.00069427	-0.75	-0.67969	-0.68359	-0.70703	-0.69531	-0.69531	-0.67969	-0.72266	116.526	338.497	455.879	166.489	306.389	324.735	359.847	279.767	443.826	355.437	311.735	327.123	198.838	212.582	443.309	430.172	-8191	255	
213.354	1	1	0	0	0.0012206	0.00043797	0.0025744	0.0016394	0.0018749	0.0011208	0.0013747	0.0025679	1.1877	5.5799	1.1287	0.53046	0.50309	0.83625	0.37376	0.22888	1.1156	1.1292	1.1636	1.1875	1.0761	1.214	1.0652	1.112	1081.7	1085.7	1094	1100.5	1104.7	1110.6	1114.6	1107.6	199.198	323.455	496.306	351.296	199.613	452.972	278.569	235.902	272.531	427.970	446.696	415.041	433.467	460.225	469.392	218.690	8.838e-05	4.9509e-05	8.9313e-05	0.00013988	9.599e-05	0.00011311	9.7883e-05	6.1995e-05	0.030727	0.049484	0.019133	0.030301	0.028976	0.037014	0.094348	0.05151	-0.00072868	-0.00072256	-0.00075714	-0.00070982	-0.00070078	-0.00068638	-0.00065611	-0.00072937	-0.69141	-0.74219	-0.69531	-0.70703	-0.66797	-0.68359	-0.67969	-0.6875	385.895	442.734	398.772	415.366	449.172	442.070	260.886	164.012	357.782	373.609	198.196	435.427	144.670	145.308	133.971	284.186	-8191	255	
213.354	1	1	0	0	0.00015188	0.0014232	0.0007006	0.0014641	0.0030111	0.0035341	0.0019395	0.001612	0.080128	0.52249	0.70309	1.2763	0.36862	0.083232	1.0999	0.49911	1.139	1.1467	1.1784	1.1967	1.0826	1.2175	1.0669	1.1129	1082.6	1082.7	1082.9	1082.8	1082.8	1082.4	1083.6	1082.6	339.119	329.613	206.157	428.173	303.314	457.328	350.610	498.784	463.225	220.577	517.717	287.853	401.142	334.573	466.607	310.092	0.00011728	8.015e-05	0.00013633	0.00014955	0.00016177	5.3435e-05	0.00012723	0.00016925	0.0042189	0.088508	0.018093	0.048848	0.077475	0.074787	0.049187	0.0096923	-0.00069665	-0.00071085	-0.00066644	-0.00069	-0.00063951	-0.00067178	-0.00058836	-0.00068257	-0.63672	-0.66016	-0.64062	-0.69922	-0.67969	-0.69922	-0.66016	-0.6875	225.465	128.279	344.021	165.428	447.008	434.557	292.913	221.908	180.000	345.434	391.298	139.072	315.051	307.238	281.853	150.159	-8191	255	
213.355	1	1	0	0	0.0011625	0.0026965	0.00053668	0.0029837	0.0035836	0.0022236	0.0036394	0.001769	0.53169	0.53457	0.22848	0.48797	0.54026	0.78214	2.2384	0.24207	1.1155	1.128	1.1626	1.1986	1.0894	1.2361	1.0905	1.1433	1110	1107.8	1102.4	1100.8	1094.5	1092.6	1088.2	1087.5	167.567	240.709	466.635	303.390	471.187	467.786	506.143	507.282	258.984	310.064	279.564	260.940	279.011	308.750	270.075	190.497	0.00015145	9.5119e-05	8.6389e-06	8.0302e-05	0.00012032	8.9634e-05	0.0001619	0.00016904	0.059434	0.023487	0.015144	0.062143	0.012794	0.037516	0.030028	0.051889	-0.00068063	-0.00065226	-0.0006625	-0.00071775	-0.0006778	-0.00061701	-0.00062402	-0.00070207	-0.67188	-0.66797	-0.72656	-0.71484	-0.73438	-0.71094	-0.69531	-0.70703	212.736	270.537	286.129	276.408	290.153	146.004	430.670	253.154	279.172	449.920	400.090	200.992	365.407	121.259	337.594	446.221	-8191	255	
213.355	1	1	0	0	0.0006471	0.0010573	0.0042798	0.0011854	0.00070939	0.001209	0.00057972	0.0036596	0.78383	0.78702	0.4388	0.55576	3.447	2.2622	0.80242	0.5843	1.1174	1.1296	1.1644	1.187	1.0751	1.2139	1.0642	1.1127	1083.6	1083.3	1083.7	1083	1094.4	1098.9	1103.4	1108.3	398.153	195.491	268.179	395.893	272.519	483.628	459.517	278.133	176.444	193.880	367.045	437.722	180.120	488.454	486.064	434.781	0.00015957	4.8144e-05	4.5454e-05	0.00012452	2.5219e-05	0.00015358	7.579e-05	1.9296e-05	0.05711	0.032838	0.015057	0.081623	0.045015	0.049757	0.028334	0.048081	-0.00067263	-0.00071866	-0.00069405	-0.00073362	-0.00073141	-0.00066082	-0.00066681	-0.00074887	-0.70312	-0.66797	-0.70312	-0.67969	-0.72266	-0.67969	-0.66406	-0.71875	240.963	126.712	259.507	310.392	301.818	461.467	265.896	153.458	159.117	469.214	250.889	150.531	413.566	366.280	311.357	257.289	-8191	255	
213.373	1	1	0	0	0.001589	0.0068721	0.001146	0.0010422	0.00051168	0.0019806	0.00018496	0.0012654	0.62118	0.45196	0.42023	1.3518	0.90667	0.59313	0.9269	0.96869	1.147	1.1614	1.1916	1.2103	1.0923	1.2279	1.074	1.1186	1087.2	1086	1083.9	1085.4	1081.8	1082.8	1081.3	1083.5	164.155	257.431	252.156	350.952	450.087	410.524	448.519	451.861	246.772	410.500	359.941	270.624	336.141	162.898	478.346	214.356	0.00010489	4.4145e-05	5.3194e-05	0.00018127	0.00013002	0.00010229	7.6946e-05	7.8008e-05	0.082411	0.025416	0.014546	0.024791	0.080963	0.081758	0.13397	0.026961	-0.00072868	-0.00072647	-0.00069799	-0.0006781	-0.00063185	-0.00061336	-0.00062758	-0.00069427	-0.66797	-0.62891	-0.64844	-0.65625	-0.70312	-0.60938	-0.65234	-0.65625	163.904	399.508	457.220	188.360	356.123	240.147	253.751	417.545	114.206	249.396	438.371	181.837	463.982	154.699	261.978	260.977	-8191	255	
213.373	1	1	0	0	0.00095593	0.0016712	0.0013127	0.00075103	0.0028544	0.0099362	0.0018045	0.00068858	0.84493	1.0695	0.36382	1.5156	0.91907	0.20315	0.86355	0.26598	1.1155	1.1283	1.1644	1.1868	1.0738	1.2172	1.0786	1.1324	1107.8	1111.2	1116.1	1110.1	1106.8	1102.4	1098.5	1094.3	393.828	511.099	178.911	164.858	261.102	439.758	163.314	489.953	440.096	425.765	452.028	302.526	281.906	229.870	270.075	263.534	0.00013201	5.4787e-05	0.00018349	6.5516e-05	8.436e-05	7.7343e-05	2.1884e-05	3.7181e-05	0.092636	0.033486	0.056305	0.079348	0.039288	0.022845	0.050334	0.045162	-0.00066062	-0.00069913	-0.00067039	-0.00069	-0.00070461	-0.00066813	-0.00057766	-0.00069037	-0.64453	-0.68359	-0.69922	-0.70703	-0.67969	-0.69531	-0.69141	-0.73047	408.996	384.428	361.660	117.166	271.284	212.007	265.172	345.947	388.980	431.804	450.402	157.763	410.030	167.390	163.027	408.353	-8191	255	
213.375	1	1	0	0	0.0012899	0.00072395	0.0009005	0.00032348	0.0030246	0.0015633	0.0013611	0.0012059	0.23345	0.51088	0.50665	0.34868	0.31958	1.1046	1.2024	1.1199	1.124	1.1333	1.1693	1.1878	1.0776	1.2143	1.0647	1.1109	1082.4	1083.1	1083	1084.6	1083.5	1082.9	1084.2	1097.3	450.154	316.914	492.121	372.806	169.297	476.722	289.344	281.174	266.466	409.368	279.176	365.315	258.071	455.938	467.233	274.401	7.1748e-05	6.7397e-05	0.00016067	8.5926e-05	6.3802e-05	8.4776e-05	8.7103e-05	6.9107e-05	0.075875	0.066987	0.028937	0.024293	0.031254	0.12511	0.019202	0.032331	-0.00072468	-0.00070694	-0.00073348	-0.00074155	-0.00071992	-0.00064257	-0.00066324	-0.00067477	-0.71484	-0.75	-0.73828	-0.72656	-0.68359	-0.69141	-0.62109	-0.69922	269.301	166.309	309.080	375.030	473.209	190.046	433.240	427.222	170.624	258.465	400.164	190.831	319.524	120.981	365.345	342.703	-8191	255	
213.394	1	1	0	0	0.0026236	0.0029597	0.00050314	0.0011677	0.0040228	0.0014837	0.00064519	0.00088904	0.19535	0.44308	0.80892	1.0717	0.20547	0.63538	0.77579	0.92026	1.1348	1.1529	1.1934	1.2224	1.1031	1.2399	1.0846	1.1294	1095.3	1092.8	1089.3	1089	1084.8	1084.2	1083.6	1083	480.560	449.816	519.679	448.552	336.997	306.060	298.703	440.201	187.601	202.204	230.399	299.718	229.554	496.895	464.047	165.257	9.301e-05	0.00010419	5.3698e-05	0.00011067	7.8196e-05	5.473e-05	0.00018959	0.0001212	0.033617	0.010968	0.03936	0.077592	0.038794	0.015462	0.014422	0.079324	-0.00071266	-0.00070694	-0.00066644	-0.00068206	-0.00068546	-0.00062431	-0.00062402	-0.00071767	-0.66797	-0.68359	-0.6875	-0.64453	-0.67188	-0.66406	-0.65234	-0.64844	134.575	197.315	290.467	226.318	468.493	139.838	154.126	468.433	152.839	354.078	422.444	249.348	234.075	135.913	173.106	208.069	-8191	255	
213.394	1	1	0	0	0.0025087	0.00092638	0.00099911	0.00043585	0.0013548	0.0012596	0.00093634	0.0023458	8.0358	1.4138	0.10056	0.21575	0.48617	1.2346	0.52856	1.1582	1.114	1.1268	1.1632	1.1852	1.0744	1.2129	1.0643	1.1127	1091.7	1099.6	1104.5	1111	1111.4	1114.1	1107.3	1103.5	515.300	188.519	273.248	337.393	273.418	309.364	266.770	460.969	452.937	480.250	453.146	308.139	478.223	177.981	492.661	253.900	0.00021363	0.00015098	9.8542e-05	3.4565e-05	0.0001477	6.8271e-05	4.3521e-05	0.00018122	0.070138	0.021364	0.045044	0.036274	0.034852	0.046527	0.072053	0.034737	-0.00066462	-0.00065617	-0.0006625	-0.00068206	-0.00065482	-0.00067178	-0.00060262	-0.00067477	-0.69141	-0.67578	-0.71875	-0.66797	-0.64453	-0.6875	-0.69531	-0.66406	388.568	410.848	194.028	389.170	381.426	397.485	389.479	331.696	408.846	308.319	364.686	297.898	328.306	473.864	187.555	158.481	-8191	255	
213.394	1	1	0	0	0.001532	0.0032095	0.00249	0.0026637	0.0018457	0.0013264	0.00026992	0.0012968	0.52924	1.141	1.7063	0.98186	0.34046	0.59362	0.52851	0.55953	1.1346	1.144	1.1743	1.1957	1.0805	1.2173	1.0661	1.1118	1082.7	1082.2	1080.4	1083.2	1081.2	1082.2	1081.6	1081.9	263.238	456.887	316.825	360.829	181.511	285.384	303.088	461.339	247.225	230.868	352.542	173.639	192.972	503.753	504.861	494.225	0.00011903	4.9027e-05	7.0767e-05	0.00018916	9.1527e-05	0.0001492	6.4224e-05	5.1353e-05	0.032146	0.019059	0.055598	0.045108	0.073293	0.073087	0.050982	0.034566	-0.00067663	-0.00069132	-0.00072165	-0.0007812	-0.00071609	-0.00070464	-0.00062045	-0.00068647	-0.73828	-0.72656	-0.6875	-0.6875	-0.71484	-0.6875	-0.68359	-0.74219	201.206	115.777	121.366	198.138	461.132	164.603	307.318	408.016	432.292	249.323	345.164	259.937	323.828	469.743	311.246	175.366	-8191	255	
213.404	1	1	0	0	0.0028773	0.0020979	0.0016472	0.0023358	0.0015363	0.00091621	0.0020724	0.00073942	0.21621	0.85323	0.8594	0.36317	0.2062	2.277	0.67653	0.90019	1.1166	1.1312	1.1812	1.21	1.1012	1.2452	1.0946	1.138	1105	1102.7	1099.1	1097.9	1091.6	1087.9	1089.1	1085.4	490.412	438.242	175.119	477.214	517.152	405.957	474.369	497.251	402.742	206.947	345.308	290.360	273.895	313.412	495.579	172.628	6.6325e-05	9.8002e-05	4.8346e-05	3.2849e-05	0.00018856	0.00014706	0.0001403	7.749e-05	0.0090077	0.048861	0.064591	0.029515	0.090708	0.042041	0.075207	0.040012	-0.00072468	-0.00069913	-0.00070588	-0.00073362	-0.00070078	-0.00065352	-0.00065967	-0.00069037	-0.65234	-0.66797	-0.71875	-0.6875	-0.68359	-0.66797	-0.69922	-0.64844	356.250	115.537	441.054	382.094	345.021	331.886	291.773	322.959	156.612	192.338	139.699	154.194	213.660	250.715	320.015	413.749	-8191	255	
213.404	1	1	0	0	0.001243	0.0013763	0.0016296	0.00050995	0.0020287	0.0011533	0.00099984	0.00049901	0.86899	0.66263	0.94809	1.1035	1.265	1.1805	0.36123	0.28133	1.116	1.1288	1.1631	1.1857	1.0741	1.2126	1.0635	1.1107	1082.8	1085	1084.6	1101.4	1102.8	1107.8	1109.6	1112.1	466.245	191.782	279.125	356.594	495.215	279.457	231.470	366.862	446.809	257.509	473.517	168.803	481.807	462.493	196.473	215.594	0.00015277	0.00012167	5.1809e-05	9.0253e-05	7.6509e-05	0.00019892	0.00016213	0.00011355	0.023277	0.047011	0.03466	0.054021	0.063344	0.030347	0.024439	0.025193	-0.00068063	-0.00066007	-0.0006901	-0.00069396	-0.00066631	-0.00064622	-0.00059192	-0.00065917	-0.66016	-0.71484	-0.68359	-0.65625	-0.69531	-0.68359	-0.72266	-0.72266	118.356	218.234	314.389	397.690	293.378	261.976	462.492	321.575	211.624	246.161	275.472	257.803	264.699	190.101	318.280	300.905	-8191	255	
213.404	1	1	0	0	0.0074754	0.0013927	0.0017831	0.0013737	0.0012567	0.0007289	0.0011541	0.00063304	0.85999	0.75381	0.74537	0.63849	0.80413	1.0748	0.3259	0.44123	1.1452	1.1532	1.1864	1.2058	1.0905	1.226	1.0723	1.118	1087	1085.3	1083.7	1084.4	1081.5	1081.1	1082.3	1080.8	265.855	451.644	295.857	340.627	206.270	480.686	312.405	436.965	258.884	231.795	509.443	267.397	334.380	486.119	177.882	480.655	8.7951e-05	5.4748e-05	0.00016271	6.3018e-05	6.1904e-05	0.00015469	0.00012397	1.9644e-05	0.012313	0.045938	0.025026	0.03213	0.020745	0.029409	0.03927	0.066703	-0.00063659	-0.0007499	-0.00071376	-0.0006662	-0.00070461	-0.00064257	-0.00066324	-0.00073327	-0.75	-0.69922	-0.69922	-0.73438	-0.75391	-0.70312	-0.74219	-0.75781	349.471	409.142	364.618	368.828	133.861	240.047	295.308	322.432	331.686	458.911	196.763	278.381	151.625	409.576	114.272	438.930	-8191	255	
213.424	1	1	0	0	0.00046159	0.0018893	0.0016305	0.0046924	0.013621	0.0016653	0.0018375	0.00052901	0.58549	0.12157	0.81138	1.3127	0.097653	1.2927	0.88924	0.69455	1.1141	1.1295	1.1658	1.1889	1.084	1.2341	1.0867	1.1381	1111.6	1112.6	1106.1	1106.1	1101.8	1098.7	1095.5	1092.6	193.448	507.472	241.790	319.142	457.571	466.040	431.696	501.053	231.839	203.489	238.904	269.823	379.570	192.060	274.830	269.320	7.5112e-05	6.7154e-05	4.0173e-05	0.00019379	8.137e-05	7.0007e-05	9.1989e-05	7.3657e-05	0.0036013	0.0053006	0.032161	0.020068	0.057665	0.015904	0.046797	0.074995	-0.00068464	-0.00070694	-0.00072559	-0.00070189	-0.00069695	-0.00066448	-0.00064185	-0.00066307	-0.74609	-0.66797	-0.72656	-0.75781	-0.66016	-0.67969	-0.70312	-0.67578	435.929	442.546	394.773	183.177	421.597	339.580	344.583	353.985	180.000	436.755	238.351	149.194	316.544	168.865	374.292	136.551	-8191	255	
213.424	1	1	0	0	0.0011982	0.0020388	0.0010995	0.0023961	0.0015673	0.00070189	0.0031141	0.00178	0.29714	0.23532	0.54658	0.45066	0.46221	0.65258	1.0578	1.5211	1.1202	1.1334	1.1668	1.1868	1.0749	1.2118	1.0618	1.1106	1080	1081.1	1082.4	1085.8	1085.6	1086.5	1099.8	1102.2	491.338	261.817	176.932	350.947	370.733	450.639	291.976	480.573	262.515	445.980	225.397	317.358	308.274	457.223	320.947	426.406	0.00017652	6.8226e-05	0.00012915	0.00019771	6.0448e-05	3.6742e-05	0.00023858	3.958e-05	0.076966	0.044886	0.020344	0.020433	0.049047	0.012561	0.040992	0.06528	-0.0006446	-0.00067569	-0.00067039	-0.00071775	-0.00064716	-0.00061336	-0.00059906	-0.00067087	-0.65625	-0.67969	-0.70312	-0.65625	-0.64844	-0.67578	-0.68359	-0.69141	223.862	381.422	414.138	424.488	338.621	117.917	220.006	315.000	419.185	260.629	282.611	146.802	363.427	419.752	119.060	361.664	-8191	255	
213.425	1	1	0	0	0.0012565	0.0015996	0.00036568	0.0030165	0.00031492	0.0029458	0.0018464	0.00067827	0.43397	1.9972	0.51898	0.66376	0.93499	0.98809	0.59228	0.79872	1.1394	1.1561	1.1941	1.2119	1.0977	1.2348	1.081	1.127	1095.7	1090.7	1089.2	1089.1	1085.9	1084.2	1082.3	1082.5	367.539	482.882	492.758	384.781	186.334	290.003	247.379	299.732	180.224	281.202	343.178	261.269	264.679	457.899	414.691	507.301	7.0439e-05	0.00016963	0.00021982	7.2884e-05	7.5784e-05	3.0359e-05	5.5068e-05	0.00018054	0.041225	0.03286	0.052206	0.078633	0.034865	0.048122	0.045597	0.084975	-0.00066862	-0.00067179	-0.00067039	-0.00067413	-0.00066248	-0.00065352	-0.00065967	-0.00073717	-0.66797	-0.65234	-0.71875	-0.66797	-0.73438	-0.74219	-0.72266	-0.72656	446.951	352.412	470.839	125.279	434.394	359.942	466.748	460.840	160.472	166.496	124.270	142.380	371.631	215.177	323.143	335.390	-8191	255	
213.434	1	1	0	0	0.0009234	0.0036262	0.0019951	0.00089866	0.00062472	0.0011492	0.002444	0.01362	1.896	0.35235	1.0856	0.32645	2.072	0.98306	0.093333	0.57458	1.1137	1.1262	1.1628	1.1873	1.0781	1.2172	1.0668	1.1268	1100.5	1105.1	1108.6	1113	1112.3	1105.9	1104.4	1101.4	514.894	308.302	466.680	303.404	456.630	360.048	421.213	517.560	449.732	511.609	480.856	365.133	199.003	217.522	390.097	193.141	5.1408e-05	8.1608e-05	9.9615e-05	6.6046e-05	0.00010776	7.7103e-05	1.1057e-05	0.00014109	0.053912	0.032857	0.020569	0.082317	0.032937	0.023307	0.054205	0.038368	-0.00066462	-0.00070694	-0.0007532	-0.00070982	-0.00071992	-0.00071194	-0.00067394	-0.00066697	-0.75	-0.69141	-0.64062	-0.75391	-0.66797	-0.65234	-0.6875	-0.69922	137.663	405.060	197.937	470.496	406.272	183.397	426.591	441.482	126.720	307.325	133.984	154.206	454.356	367.635	183.408	442.915	-8191	255	
213.434	1	1	0	0	0.0021596	0.0011829	0.001672	0.0015877	0.0019569	0.0012476	8.7959e-05	0.0011283	0.67314	1.9757	1.0819	0.48873	0.71234	0.49636	0.22986	1.0888	1.1321	1.1427	1.1765	1.195	1.0806	1.2183	1.0668	1.1128	1082.8	1080.5	1082.2	1084.7	1083.4	1085.2	1085.8	1086.2	219.451	200.447	277.895	181.782	276.144	285.673	448.824	443.947	259.561	417.575	496.205	424.558	419.822	189.308	322.752	212.068	6.4555e-05	0.00014071	2.7514e-05	2.217e-05	0.00011316	0.00016409	0.00011923	0.00022944	0.015242	0.038054	0.071763	0.040862	0.06846	0.053741	0.03681	0.045085	-0.0006486	-0.00062492	-0.00069799	-0.00070586	-0.00064334	-0.00065352	-0.00063828	-0.00070207	-0.68359	-0.67969	-0.65625	-0.66797	-0.67969	-0.65625	-0.66016	-0.66797	225.469	344.493	369.685	117.143	320.640	320.735	137.233	448.026	354.780	349.512	136.352	220.735	145.846	232.793	399.266	413.268	-8191	255	
213.435	1	1	0	0	0.0012157	0.0019367	0.0019461	0.00065176	0.0017969	0.0025832	0.00081859	0.00025438	0.33785	1.4811	0.52048	1.8169	1.2592	0.63639	1.4513	0.60668	1.1196	1.1447	1.1861	1.2127	1.1026	1.246	1.0856	1.1351	1101.7	1099.7	1097.3	1097.4	1092.2	1091.2	1088.2	1086.3	288.594	469.658	469.585	509.328	488.431	474.605	372.276	207.176	334.719	249.695	220.947	279.997	303.047	162.671	240.229	255.647	0.00010209	7.3327e-05	0.00020271	4.6783e-05	8.8292e-05	0.00010829	7.6612e-05	0.0001047	0.017418	0.063386	0.06654	0.029483	0.077943	0.0088334	0.095694	0.066526	-0.0006446	-0.0006796	-0.0006349	-0.00066224	-0.00066631	-0.00066448	-0.00066681	-0.00068647	-0.72266	-0.71094	-0.70312	-0.67969	-0.70703	-0.73828	-0.67578	-0.70703	355.519	269.487	401.919	239.149	181.607	464.826	442.008	365.453	223.731	311.621	333.727	298.615	153.814	373.070	248.256	457.545	-8191	255	
213.435	1	1	0	0	0.00028808	0.0008322	0.0015087	0.0015185	0.0019279	0.0013724	0.00026715	0.0017377	0.14793	1.6519	1.8736	0.42529	0.83842	1.4802	0.47038	3.9174	1.1175	1.1292	1.1631	1.1856	1.076	1.2155	1.0662	1.1152	1087.2	1084.9	1098.7	1101.8	1104.9	1108.9	1111.2	1108.9	320.089	470.635	179.543	511.897	276.055	218.291	193.417	193.039	455.579	493.125	274.504	391.956	471.233	441.443	456.881	272.538	8.035e-05	5.6628e-05	0.00012096	0.00018883	7.8289e-05	0.00015589	8.5476e-05	0.00010836	0.05815	0.082121	0.051923	0.036231	0.028226	0.049004	0.096703	0.029518	-0.00072067	-0.00071866	-0.00072559	-0.00074551	-0.00066631	-0.00066448	-0.0007096	-0.00073327	-0.72266	-0.6875	-0.70312	-0.67969	-0.71484	-0.71875	-0.73828	-0.72656	117.841	367.961	171.207	238.728	319.918	370.984	417.363	183.958	231.703	194.941	176.558	426.780	149.104	402.895	157.595	290.452	-8191	255	
213.453	1	1	0	0	0.0013967	0.0038422	0.0018043	0.0010761	0.0010312	0.0029174	0.00098434	0.002034	0.82135	0.4731	0.33799	0.78721	2.1441	0.11452	0.41601	0.29425	1.1377	1.1496	1.1843	1.2035	1.0892	1.2257	1.0736	1.119	1087	1086.2	1084.1	1084.8	1082.3	1084.2	1084.2	1084.7	451.279	276.813	222.259	336.575	266.851	450.238	210.184	256.852	297.925	209.786	243.137	339.602	459.658	266.233	451.993	520.614	7.8782e-05	2.2839e-05	9.2198e-05	8.1042e-05	7.0973e-05	9.4843e-05	4.8163e-05	8.5654e-05	0.060527	0.04811	0.022191	0.041589	0.052941	0.021433	0.059575	0.059605	-0.00066062	-0.00069522	-0.00068616	-0.00067413	-0.0006778	-0.00061701	-0.00058836	-0.00070987	-0.71094	-0.71875	-0.71094	-0.66406	-0.71094	-0.63281	-0.65234	-0.65625	420.998	330.880	419.894	279.146	369.593	229.579	344.478	146.246	347.059	132.088	295.224	458.758	170.205	169.516	450.509	256.191	-8191	255	
213.455	1	1	0	0	0.0012473	0.0013891	0.0023514	0.016344	0.0032633	0.0012394	0.0015877	0.0018507	0.84833	0.56491	0.70201	0.81996	0.75922	0.3973	0.87406	1.8643	1.118	1.1314	1.1649	1.1943	1.0903	1.235	1.0878	1.1391	1112.4	1104.5	1104	1103.4	1099.3	1097.5	1095.5	1093	439.324	191.985	306.768	448.790	493.405	497.446	489.840	473.029	457.043	431.879	518.339	254.468	486.939	214.456	439.625	202.664	0.00023134	7.4688e-05	8.4002e-05	9.8444e-05	0.00015105	7.7509e-05	8.7987e-05	3.7402e-05	0.054465	0.071384	0.064478	0.064555	0.0068587	0.028764	0.034123	0.047535	-0.0006446	-0.00065617	-0.00066644	-0.00062258	-0.0006778	-0.00064622	-0.00062402	-0.00064746	-0.6875	-0.6875	-0.70703	-0.69141	-0.6875	-0.69531	-0.64062	-0.68359	327.004	465.027	180.407	209.670	396.152	227.034	431.832	161.912	258.496	362.315	116.125	117.544	350.993	380.890	253.946	394.511	-8191	255	
213.455	1	1	0	0	0.00040931	0.0014462	0.0014483	0.00086172	0.00078062	0.0046543	0.0019425	0.0022955	0.28461	0.8226	0.14587	0.71289	0.57273	0.68909	0.81074	1.8929	1.1244	1.1346	1.1683	1.1888	1.0767	1.2154	1.0665	1.1146	1085.2	1086.9	1085	1086.1	1084.6	1096.7	1100.6	1104.8	258.416	216.179	266.172	481.745	497.806	305.292	469.725	488.268	336.804	445.140	172.997	281.840	504.035	305.421	494.378	463.221	0.00018047	0.00018615	0.00016206	7.2761e-05	0.00013887	3.5906e-05	2.9289e-05	0.00011663	0.038184	0.03872	0.041102	0.038102	0.047261	0.057219	0.011682	0.026501	-0.00073669	-0.00067179	-0.00072954	-0.00069396	-0.00071609	-0.00066448	-0.00062758	-0.00068257	-0.67578	-0.73047	-0.70703	-0.69922	-0.78125	-0.73047	-0.69531	-0.71484	460.625	199.922	273.737	245.561	166.488	393.152	409.661	175.510	374.182	370.034	343.831	255.113	266.686	262.922	354.844	375.664	-8191	255	
213.474	1	1	0	0	0.0013921	0.0027447	0.0028147	0.0016899	0.001014	0.00061534	0.00063322	0.00048537	1.9147	0.30153	0.69314	1.2812	1.6399	0.60678	1.114	0.34107	1.1416	1.1578	1.1891	1.2095	1.0949	1.2331	1.0789	1.1265	1094.3	1092.1	1090.7	1089.2	1085.7	1084.1	1085.4	1086.2	441.019	467.757	323.020	374.763	335.678	342.325	324.787	269.803	239.990	215.952	231.793	247.663	259.279	166.213	332.175	455.391	0.00022865	0.00013123	7.277e-05	6.7993e-05	0.00017724	4.9507e-05	9.376e-05	4.7408e-05	0.037657	0.046428	0.016666	0.036466	0.062891	0.037007	0.031896	0.042398	-0.00069265	-0.00067179	-0.0006901	-0.00069396	-0.00065099	-0.00065717	-0.00063828	-0.00067477	-0.67188	-0.69531	-0.70312	-0.67969	-0.72266	-0.70703	-0.66016	-0.67188	342.980	470.532	321.294	254.335	358.048	368.691	129.132	426.349	429.790	412.107	453.741	412.582	147.219	217.820	126.662	401.906	-8191	255	
213.474	1	1	0	0	0.0014776	0.00057312	0.0014212	0.0007231	0.0025412	0.0023945	0.012273	0.001023	0.64841	1.3127	0.92265	0.94758	0.88814	0.47933	0.57509	1.3588	1.1182	1.1314	1.1667	1.1878	1.0765	1.2124	1.0746	1.1269	1101.7	1106	1109.1	1111.9	1103.9	1101.7	1100.6	1098.3	335.849	304.200	166.951	257.412	282.419	451.161	162.196	456.394	491.705	497.279	453.054	216.319	201.347	233.356	219.503	515.393	2.6047e-05	0.00014165	7.7703e-05	7.8024e-05	0.00016119	6.8969e-05	0.0001072	0.00012033	0.010638	0.028738	0.056647	0.079959	0.066274	0.036398	0.039873	0.075971	-0.00067663	-0.00064445	-0.00070193	-0.00069396	-0.00062802	-0.00061701	-0.00059549	-0.00064356	-0.67188	-0.64844	-0.6875	-0.68359	-0.66016	-0.68359	-0.64844	-0.66797	473.005	336.527	297.336	379.815	151.144	181.937	173.773	235.320	289.031	143.460	347.270	387.260	273.515	214.069	144.102	287.349	-8191	255	
213.474	1	1	0	0	0.001343	0.00069211	0.00083501	0.0026352	0.0012329	0.001523	0.002626	0.0015878	0.88435	0.72972	1.0379	0.46577	0.33036	0.74166	1.378	0.72853	1.1296	1.1401	1.1759	1.1966	1.0812	1.2187	1.0675	1.1159	1085.7	1086.7	1086.7	1086.2	1083.8	1084	1082.3	1083.5	272.213	302.783	390.129	276.792	194.850	329.190	476.711	427.964	365.144	188.827	496.497	391.972	357.013	479.145	266.078	433.511	1.0638e-05	0.00023111	4.7977e-05	0.00012594	8.0146e-05	0.00015508	0.00012372	0.00013512	0.076468	0.068518	0.085006	0.012773	0.0064632	0.052869	0.022308	0.022782	-0.00069665	-0.00069913	-0.00073348	-0.00069	-0.0006778	-0.00064622	-0.00065967	-0.00072937	-0.71094	-0.69922	-0.70703	-0.71484	-0.74609	-0.67969	-0.73828	-0.6875	266.524	310.314	296.013	293.267	140.633	250.401	473.255	318.053	241.337	419.733	198.780	120.119	227.184	275.770	286.038	412.040	-8191	255	
213.484	1	1	0	0	0.00065427	0.0030543	0.0018786	0.0010275	0.0011382	0.00054461	0.0014624	0.00045469	0.5306	0.68289	0.50584	0.91419	0.16307	0.99131	0.33291	0.17719	1.1282	1.1457	1.1875	1.2136	1.1032	1.2375	1.0833	1.1307	1098.7	1097.2	1095.3	1093.9	1093.1	1090	1088.5	1088.4	408.052	475.709	509.638	521.375	498.559	166.981	244.358	226.008	445.049	339.226	210.370	394.664	518.475	165.859	230.757	519.387	1.2415e-05	0.00012312	7.0574e-05	7.3412e-05	0.00021832	3.4899e-05	3.4636e-05	6.5186e-05	0.051107	0.018585	0.046945	0.075611	0.089016	0.041134	0.008457	0.038938	-0.00073669	-0.00069132	-0.00076503	-0.00074948	-0.00072375	-0.00063162	-0.00062402	-0.00069427	-0.6875	-0.6875	-0.69141	-0.73047	-0.65234	-0.6875	-0.69531	-0.72266	115.554	315.268	414.742	128.647	447.452	137.493	459.605	350.199	415.095	145.283	362.740	293.970	463.258	287.380	381.717	179.552	-8191	255	
213.484	1	1	0	0	0.0017107	0.00070463	0.0013081	0.0011786	0.0017079	0.001488	0.0013498	0.00010686	0.83426	2.0984	0.74587	1.1291	0.8397	1.245	2.7266	0.93591	1.1202	1.1323	1.1684	1.1905	1.0767	1.214	1.0636	1.1113	1081.4	1094.9	1097.7	1103.4	1106.3	1109.1	1105	1103.2	213.097	217.404	427.887	445.969	335.750	257.419	309.803	425.224	196.330	305.378	400.878	435.482	518.858	456.414	321.150	198.908	8.8091e-05	0.00011064	0.00016868	9.107e-05	7.7954e-05	8.779e-05	0.00013968	0.00016549	0.10095	0.04708	0.081217	0.018428	0.064597	0.022799	0.078106	0.029254	-0.00066462	-0.00070694	-0.00070588	-0.00068603	-0.00067397	-0.00061701	-0.00063115	-0.00067087	-0.65625	-0.63672	-0.6875	-0.6875	-0.71094	-0.67969	-0.67969	-0.71875	409.899	395.308	460.499	247.740	433.695	299.617	197.628	281.969	309.823	312.084	178.023	185.018	308.460	182.734	452.769	239.401	-8191	255	
213.484	1	1	0	0	0.0012684	0.0019127	0.0034181	0.0018257	0.0022799	0.0024677	0.0016107	0.0028211	0.31007	0.24473	0.59851	0.5862	0.6062	1.2664	0.16882	0.73192	1.132	1.145	1.1789	1.2004	1.0869	1.2263	1.0728	1.1193	1090.1	1089.7	1088	1089	1088	1084.8	1084.1	1083.1	278.878	203.820	353.532	505.888	262.195	298.131	285.603	185.868	344.651	242.961	371.617	470.703	190.863	336.042	300.658	218.242	8.7756e-05	1.9104e-05	7.8923e-05	6.1416e-05	0.00011499	3.7309e-05	9.8529e-05	6.0096e-05	0.038724	0.056968	0.025547	0.0073902	0.010532	0.065448	0.09698	0.048732	-0.00068063	-0.00068741	-0.0006625	-0.00071775	-0.00065099	-0.00060241	-0.00060262	-0.00070207	-0.73047	-0.66797	-0.76562	-0.64453	-0.67188	-0.71875	-0.70312	-0.70312	282.320	180.112	399.137	164.263	441.879	397.214	413.258	472.492	457.002	173.883	471.369	169.899	402.586	398.791	267.052	269.011	-8191	255	
213.504	1	1	0	0	0.0029709	0.0026796	0.019163	0.0034786	0.0014732	0.0012419	0.001606	0.0019594	1.0752	1.1287	0.72831	1.5123	1.0831	1.1441	0.65933	1.1516	1.1151	1.1265	1.1722	1.2003	1.0933	1.2385	1.0898	1.1405	1104.6	1101.4	1099.9	1100.5	1097.1	1095.9	1094.4	1093.1	277.168	406.042	477.062	468.696	435.414	199.749	237.415	177.887	310.855	294.836	508.233	227.757	375.547	338.739	510.407	286.658	0.00010565	1.9322e-05	0.00015352	7.3081e-05	2.9911e-05	6.479e-05	3.6392e-05	0.00015687	0.061198	0.076444	0.1067	0.082418	0.033793	0.018009	0.048473	0.074224	-0.00069265	-0.00069913	-0.00073742	-0.00072569	-0.00068163	-0.00067908	-0.00066324	-0.00072547	-0.69141	-0.66797	-0.69531	-0.71094	-0.66797	-0.69141	-0.69141	-0.68359	439.650	278.062	456.561	309.330	379.616	428.031	456.422	472.061	311.455	122.813	385.777	140.290	459.748	419.829	220.691	120.714	-8191	255	
213.504	1	1	0	0	0.0034335	0.0019204	0.00084482	0.0019932	0.0027766	0.0023572	0.001695	0.0037934	0.97566	1.0794	0.96912	0.46737	0.64277	0.97568	1.2307	0.59141	1.125	1.1377	1.1741	1.1938	1.0808	1.2199	1.067	1.1141	1083.2	1082.8	1081.9	1082.6	1094	1098	1103	1106.8	469.609	283.681	499.310	372.384	326.311	173.903	348.207	279.591	165.317	213.003	242.238	431.921	323.814	458.984	504.724	472.157	0.00011116	9.9129e-05	2.9621e-05	0.00015394	6.7958e-05	8.4364e-05	9.5317e-05	3.2704e-05	0.01845	0.097937	0.039768	0.039979	0.050927	0.015424	0.043581	0.0079025	-0.00071266	-0.00066398	-0.00068222	-0.00069	-0.00071609	-0.00066082	-0.00059192	-0.00067477	-0.69531	-0.61719	-0.70312	-0.6875	-0.63281	-0.66016	-0.6875	-0.67578	442.652	142.861	451.678	123.486	130.887	398.500	207.578	141.641	449.785	214.715	422.638	135.416	458.824	153.812	460.436	211.156	-8191	255	
213.505	1	1	0	0	0.0019523	0.00079411	0.0022287	0.0013634	0.00098169	0.0010237	0.0015525	0.0036459	1.1095	0.54929	0.15626	1.5515	0.2602	0.46844	1.5859	1.4903	1.1423	1.1498	1.1842	1.2044	1.0915	1.2294	1.0778	1.1233	1094.3	1094.6	1093.1	1094.6	1092.1	1091.8	1088.6	1087.7	452.089	291.236	302.417	315.965	313.759	252.613	213.868	331.990	485.026	269.792	467.298	286.221	236.133	454.906	231.925	207.216	0.00011736	0.00013333	8.2519e-05	0.00010355	8.8245e-05	6.4728e-05	4.1197e-05	4.4962e-05	0.071312	0.067151	0.01205	0.03681	0.035216	0.077982	0.043175	0.064172	-0.00062859	-0.00069913	-0.00066644	-0.00068206	-0.00065482	-0.00065717	-0.00063471	-0.00069817	-0.71484	-0.71094	-0.73828	-0.69531	-0.6875	-0.66406	-0.72266	-0.67188	143.111	246.219	330.389	471.789	162.652	410.279	148.949	224.012	328.988	183.340	232.789	436.757	425.198	128.396	352.474	373.362	-8191	255	
213.523	1	1	0	0	0.0012706	0.0016481	0.0011476	0.0015389	0.0021542	0.0064873	0.003273	0.001729	0.94938	0.74125	3.2134	0.27123	0.48344	0.61498	0.53427	0.3858	1.1181	1.1297	1.1653	1.1862	1.0739	1.2273	1.0773	1.1309	1104.8	1108.2	1108.4	1103.9	1100.7	1098	1097.8	1097.2	488.852	283.497	328.977	515.766	504.460	226.336	511.863	431.162	472.773	456.837	247.894	271.183	249.399	389.186	196.570	175.532	0.00016919	0.00012941	0.00013753	0.00012803	6.6606e-05	6.7712e-05	5.3436e-05	0.00010609	0.045826	0.034529	0.084088	0.037582	0.063342	0.049902	0.07808	0.071331	-0.00069665	-0.00066398	-0.00069405	-0.00069396	-0.00068546	-0.00067178	-0.00063471	-0.00071377	-0.73828	-0.69531	-0.73828	-0.73828	-0.69531	-0.69922	-0.67969	-0.75391	449.400	208.568	428.128	194.661	185.011	150.455	332.626	128.025	326.213	188.126	289.066	330.612	294.381	130.396	248.632	410.635	-8191	255	
213.525	1	1	0	0	0.00049337	0.00096707	0.0025539	0.00053881	0.0020943	0.00025163	0.0015934	0.0013969	0.57708	1.276	1.0342	0.45126	0.086	1.4391	4.264	0.97919	1.1285	1.141	1.1784	1.1997	1.0863	1.2245	1.0741	1.117	1088.6	1085.2	1084.7	1086	1081.9	1080.5	1083.7	1093.8	205.249	189.938	286.418	170.455	415.211	170.517	208.467	194.896	265.643	501.080	278.959	234.268	455.516	255.304	413.107	451.669	9.667e-05	6.1174e-05	0.00011074	0.00014573	9.2029e-05	0.00018853	0.00019418	0.00012205	0.0016081	0.013088	0.050709	0.021759	0.046406	0.036166	0.029379	0.078641	-0.00066862	-0.00066788	-0.00070588	-0.0006781	-0.00065865	-0.00056955	-0.00063115	-0.00069037	-0.72656	-0.70703	-0.66406	-0.69141	-0.69922	-0.66797	-0.63672	-0.65234	317.409	445.762	230.655	277.751	382.909	246.573	283.439	228.160	180.000	204.240	410.495	464.485	123.619	191.153	430.147	258.841	-8191	255	
213.525	1	1	0	0	0.0031786	0.0016154	0.0010052	0.0007121	0.00078351	0.0017904	0.0020499	0.0019515	0.58203	0.14743	0.76572	0.9347	0.41261	0.1744	0.37202	0.74887	1.1315	1.1488	1.1895	1.2146	1.0943	1.2339	1.0793	1.1267	1097.2	1095.5	1094.8	1098.6	1096.7	1094.4	1094.1	1093.1	439.387	516.553	224.876	399.308	251.862	199.886	236.635	512.117	261.272	249.355	466.125	237.191	248.647	273.656	310.440	179.213	4.9122e-05	8.2915e-06	3.6665e-05	0.00017507	0.00011263	3.2642e-05	2.3427e-05	0.00013079	0.026559	0.062075	0.052955	0.086474	0.040574	0.022587	0.012753	0.019729	-0.00072067	-0.00066007	-0.0006901	-0.00065034	-0.00063951	-0.00060241	-0.00062402	-0.00069037	-0.65625	-0.69922	-0.67578	-0.69531	-0.72656	-0.71484	-0.68359	-0.70703	275.162	187.855	177.066	248.617	453.541	174.671	283.875	115.045	310.164	413.105	146.658	233.405	252.871	246.763	228.413	272.275	-8191	255	
213.525	1	1	0	0	0.0038782	0.0016969	0.00044352	0.00079062	0.00053075	0.0012495	0.0018143	0.0019548	1.3915	0.91908	0.46228	0.95216	0.34754	1.4107	0.82918	1.0831	1.122	1.1343	1.167	1.1885	1.0763	1.213	1.0635	1.1096	1094.4	1095.8	1101.4	1106.1	1107.3	1103.9	1101.5	1099.2	231.975	313.130	305.792	511.056	370.129	375.808	503.498	505.923	282.641	463.145	326.660	474.353	391.777	325.467	205.386	177.814	9.2676e-05	1.9797e-05	0.00013493	5.1657e-05	6.9165e-05	5.3237e-05	3.6775e-05	0.00012221	0.037042	0.02844	0.025829	0.018043	0.060875	0.021129	0.034926	0.020658	-0.00072067	-0.00073037	-0.00069799	-0.00069396	-0.00073907	-0.00064987	-0.00063471	-0.00070987	-0.67188	-0.6875	-0.72266	-0.72266	-0.72656	-0.77344	-0.76172	-0.73828	396.383	142.926	377.783	319.157	472.801	306.465	240.214	130.180	364.540	371.562	188.684	464.425	266.035	404.655	393.739	186.956	-8191	255	
213.534	1	1	0	0	0.001568	0.00065213	0.0011071	0.0013799	0.00099164	0.003796	0.0019405	0.0020766	0.60184	0.86779	0.49539	0.91606	0.28128	0.46427	0.18671	0.65164	1.1297	1.1425	1.1778	1.2017	1.0896	1.2288	1.0778	1.126	1092.9	1090.4	1089	1088.9	1085.9	1083.4	1083.2	1081.9	393.492	464.288	490.992	242.389	318.938	485.921	310.772	290.544	401.193	444.205	453.488	304.196	227.459	280.860	210.305	508.355	4.1089e-05	6.4186e-05	0.00010566	0.0001302	0.00011101	0.00015105	3.8439e-05	3.0696e-05	0.01881	0.072214	0.077256	0.048794	0.079935	0.0083749	0.04983	0.019977	-0.00070466	-0.00073037	-0.00065856	-0.00074948	-0.00066248	-0.00065352	-0.00063115	-0.00065917	-0.6875	-0.70312	-0.66797	-0.65234	-0.71875	-0.66406	-0.60547	-0.70312	204.733	186.815	187.665	439.120	201.184	169.427	307.230	458.936	259.763	166.073	143.520	177.135	184.930	161.968	380.929	167.024	-8191	255	
213.534	1	1	0	0	0.00068258	0.019821	0.0019211	0.0027504	0.00098639	0.00036865	0.0016726	0.00115	0.48434	1.2599	1.0578	0.37485	0.40505	1.8364	0.72587	0.23303	1.1123	1.1356	1.1763	1.2044	1.0953	1.2401	1.0898	1.1311	1099.8	1096.9	1095.3	1096.9	1097.1	1097.6	1098.2	1098.2	317.764	472.003	465.694	517.414	503.558	445.218	235.034	487.552	476.950	245.735	430.231	275.076	259.866	479.293	259.817	275.394	4.1065e-05	9.3888e-05	0.00013342	9.9634e-05	7.1196e-05	1.8894e-05	3.9114e-05	3.0978e-05	0.013556	0.04967	0.019803	0.040622	0.048952	0.017319	0.045617	0.015125	-0.00070466	-0.00070303	-0.00067039	-0.00069396	-0.00065099	-0.00065352	-0.00061332	-0.00066697	-0.71875	-0.68359	-0.72266	-0.67578	-0.73047	-0.6875	-0.68359	-0.68359	215.281	163.666	437.129	404.547	421.423	435.185	457.080	404.778	350.617	274.503	213.387	298.392	311.128	427.691	144.432	147.399	-8191	255	
213.534	1	1	0	0	0.0023784	0.00053601	0.0012192	0.0020347	0.0012973	0.00052904	0.0022253	0.00087097	0.71646	0.69128	0.93973	0.3561	1.0483	0.43191	0.53705	1.3931	1.1289	1.1394	1.1736	1.1927	1.082	1.2188	1.0668	1.1129	1082.5	1082.7	1081.3	1095.1	1098.2	1101.6	1105.6	1107.7	409.259	250.832	387.598	331.568	187.281	294.750	289.741	180.406	174.893	216.088	388.052	345.977	171.902	448.856	176.143	479.493	7.7298e-05	7.1888e-05	6.0108e-05	0.00010573	6.4626e-05	9.994e-05	9.1919e-05	0.0001269	0.018338	0.022838	0.012321	0.028212	0.10704	0.079518	0.025198	0.042211	-0.00070065	-0.00072647	-0.00067433	-0.00072172	-0.00067397	-0.00064987	-0.00067037	-0.00072937	-0.76562	-0.70312	-0.66406	-0.73438	-0.69141	-0.75391	-0.72656	-0.70703	373.706	448.612	222.800	221.274	388.599	348.064	327.517	365.332	443.425	436.064	372.498	166.936	191.639	378.045	444.896	404.365	-8191	255	
213.554	1	1	0	0	0.001491	0.0021451	0.00068141	0.00090054	0.0022638	0.00065522	0.0037469	0.00141	1.4111	1.6006	0.37564	0.32412	1.4837	0.80437	0.79178	0.7027	1.134	1.147	1.1796	1.1999	1.0891	1.2303	1.0779	1.1283	1098.7	1097.5	1094.6	1094.1	1090.6	1089.9	1087.2	1085.8	226.531	259.959	205.329	321.927	169.765	181.037	448.708	264.605	418.426	322.432	358.724	382.286	235.688	498.281	493.401	297.634	3.7721e-05	8.173e-05	8.1954e-05	6.1094e-05	0.00011963	1.7395e-05	0.00019008	9.305e-05	0.011341	0.01721	0.091981	0.04434	0.050844	0.028357	0.051309	0.084606	-0.00070466	-0.00071475	-0.00070193	-0.00077724	-0.00075822	-0.00066448	-0.00064185	-0.00069427	-0.70703	-0.73438	-0.72656	-0.66406	-0.65625	-0.66797	-0.66016	-0.6875	149.413	242.581	354.588	408.952	400.850	330.211	411.178	429.683	258.002	430.959	161.376	308.213	344.040	385.756	276.917	403.831	-8191	255	
213.554	1	1	0	0	0.0002075	0.00099225	0.00060008	0.00058758	0.0032262	0.0030292	0.0014637	0.0018755	0.8794	3.5257	0.38369	0.60523	0.61645	0.063801	0.64632	0.48737	1.1166	1.1281	1.1635	1.184	1.0876	1.2287	1.0813	1.1339	1106	1103.5	1100.6	1099.4	1095.6	1095.6	1097.3	1097.6	280.941	471.846	481.489	464.414	312.652	485.023	164.677	190.488	417.940	307.480	245.689	318.624	389.222	300.215	289.749	506.053	6.7465e-05	5.8376e-05	7.4469e-05	0.00014102	0.00015181	8.8502e-05	0.00014713	7.3149e-05	0.082367	0.064422	0.073341	0.039861	0.012365	0.031977	0.05478	0.050942	-0.00065661	-0.00071085	-0.00069405	-0.00059482	-0.00068546	-0.00063162	-0.00063471	-0.00069427	-0.67969	-0.62891	-0.64844	-0.69531	-0.62891	-0.67969	-0.63281	-0.65234	343.775	133.611	373.882	218.965	120.517	431.424	209.898	178.510	259.073	438.168	417.784	184.620	364.893	435.098	424.260	244.279	-8191	255	
213.554	1	1	0	0	0.0024131	0.00092851	0.0022968	0.0052264	9.9843e-05	0.0024368	0.00083405	0.001066	0.99735	0.60614	0.77047	0.20408	1.1479	8.4563	0.22592	0.38268	1.1313	1.1455	1.1791	1.1998	1.0858	1.2242	1.071	1.117	1086.9	1085.6	1084.4	1084.3	1081.3	1092.4	1095.4	1100.4	460.472	281.808	288.563	280.658	323.062	243.937	228.338	398.103	182.742	243.681	483.755	244.940	396.418	490.341	472.451	439.819	4.8096e-05	9.2868e-05	0.00017861	0.00015447	4.5063e-05	0.00010283	1.6941e-05	0.00014527	0.037171	0.055551	0.062779	0.050066	0.02697	0.065824	0.065159	0.028656	-0.00068464	-0.00070694	-0.00072165	-0.00070586	-0.00065482	-0.00066448	-0.00059549	-0.00072937	-0.73438	-0.71484	-0.72656	-0.70703	-0.69922	-0.73047	-0.76953	-0.6875	314.173	320.223	213.514	135.987	238.003	369.554	413.283	276.800	115.276	261.305	334.878	317.447	118.363	173.155	261.049	463.692	-8191	255	
213.574	1	1	0	0	0.0025273	0.0013809	0.0022363	0.0015948	0.0015279	0.00087745	0.0012827	0.0023432	0.90675	0.92906	1.1418	0.9604	0.82622	1.363	0.14381	0.66307	1.1371	1.1533	1.1919	1.2061	1.0917	1.2296	1.0778	1.1264	1097.6	1098.3	1099.4	1097.8	1097.4	1094.3	1092	1089.8	475.308	244.899	171.588	296.383	302.907	221.781	295.200	162.712	436.258	515.103	402.316	349.909	333.097	246.129	296.538	353.740	2.7638e-05	3.3932e-05	0.00021101	0.00010872	8.8471e-05	0.00010157	9.0305e-05	1.0813e-05	0.037186	0.037917	0.047228	0.079028	0.093122	0.032037	0.11323	0.041636	-0.00070866	-0.00068741	-0.00070588	-0.00069793	-0.00071609	-0.00066813	-0.00067037	-0.00072937	-0.72266	-0.73438	-0.69922	-0.67969	-0.71094	-0.71094	-0.6875	-0.67969	376.141	219.141	436.906	315.603	324.816	349.309	161.051	150.618	136.618	346.573	398.152	154.391	354.820	448.496	342.268	436.523	-8191	255	
213.574	1	1	0	0	0.00081487	0.00072105	0.00057237	0.0012487	0.00078864	0.0021491	0.0021565	0.0012474	0.52825	0.64845	1.1222	1.1042	0.72013	0.40124	1.0124	0.80479	1.1223	1.1336	1.1674	1.1887	1.0754	1.2126	1.0627	1.1226	1097.9	1101.3	1105.4	1108.8	1100.2	1098.7	1098	1096.8	520.084	490.128	288.408	272.469	186.730	274.737	391.877	495.802	481.334	457.825	477.247	427.907	240.000	514.412	169.214	212.467	5.0932e-05	0.00010958	0.00022529	3.5751e-05	5.1511e-05	7.476e-05	9.2826e-05	4.8899e-05	0.035763	0.026731	0.05971	0.074375	0.044034	0.082427	0.042884	0.032658	-0.00067263	-0.0006796	-0.00070588	-0.00071379	-0.00069695	-0.00066082	-0.0005741	-0.00065526	-0.71094	-0.72266	-0.66016	-0.67188	-0.66797	-0.67578	-0.65625	-0.63281	323.707	299.178	425.071	189.793	153.801	428.488	157.808	242.899	302.691	212.894	118.102	320.017	307.207	353.337	191.194	270.245	-8191	255	
213.575	1	1	0	0	0.00091969	0.0017673	0.001452	0.0013628	0.0017832	0.0027771	0.00021803	0.0020932	0.96275	0.59202	0.33126	1.2004	0.39347	0.65528	1.0177	0.62207	1.1288	1.1436	1.179	1.2032	1.0892	1.2287	1.076	1.1227	1091.5	1090.2	1088.7	1088.6	1087	1085.1	1084	1081.8	293.773	488.391	370.499	472.956	452.135	251.652	305.560	357.318	379.597	162.050	403.004	367.656	252.777	289.872	277.795	484.687	0.00012925	6.5385e-05	4.8343e-05	0.00014119	4.2779e-05	7.9173e-05	0.00011282	0.00014277	0.03675	0.045292	0.075134	0.044231	0.036647	0.0064631	0.032644	0.020002	-0.00069265	-0.00066398	-0.00071376	-0.00068603	-0.00065865	-0.00064622	-0.00062402	-0.00065136	-0.64453	-0.66406	-0.6875	-0.69531	-0.70312	-0.70312	-0.72656	-0.71094	156.712	469.317	420.878	423.634	440.431	155.889	473.529	395.762	448.779	169.165	189.446	154.173	271.173	354.618	358.466	304.534	-8191	255	
213.584	1	1	0	0	0.0033691	0.0035674	0.0019663	0.00054793	0.00042889	0.0070905	0.00033628	0.0017249	0.96823	0.9732	0.32112	0.27016	0.31184	0.20662	0.76048	0.75179	1.1295	1.1432	1.1834	1.2091	1.0992	1.2376	1.0817	1.1296	1098.5	1097.4	1096.3	1099.8	1097	1097.2	1097.1	1096.3	286.160	466.689	470.970	519.286	174.938	322.073	492.111	262.260	213.186	488.335	306.991	257.015	477.934	254.569	169.050	236.168	8.4677e-05	0.00011296	9.0964e-05	4.3763e-05	0.00018489	0.00014582	4.972e-05	2.289e-05	0.045619	0.066405	0.093496	0.068665	0.0091225	0.032396	0.066119	0.039182	-0.00071667	-0.00072647	-0.00074926	-0.00074948	-0.00068929	-0.00066813	-0.00063471	-0.00072937	-0.73438	-0.74219	-0.72656	-0.71484	-0.75781	-0.73828	-0.69141	-0.69922	407.196	353.998	197.423	270.184	125.175	404.098	322.568	448.408	416.250	145.810	248.701	154.997	408.151	413.724	389.594	461.293	-8191	255	
213.584	1	1	0	0	0.0026443	0.0023451	0.0033288	0.00093033	0.0013418	0.0015286	0.0017386	0.0016614	1.2794	9.3683	1.4031	0.58476	0.38167	0.57061	0.73896	1.0419	1.1269	1.1382	1.173	1.1941	1.0808	1.2193	1.0674	1.1147	1081.7	1091.1	1096.3	1101.8	1104.2	1106.9	1109	1101.3	274.992	243.177	166.769	337.368	301.528	206.063	268.065	238.848	366.105	471.965	495.418	346.706	488.635	513.440	246.643	397.105	0.00014999	8.0073e-05	3.9302e-05	1.9438e-05	8.5981e-05	3.4735e-05	4.7935e-05	9.4491e-05	0.042377	0.044048	0.063149	0.091449	0.11561	0.04101	0.077454	0.033199	-0.00072468	-0.00069132	-0.00070982	-0.00068206	-0.00068546	-0.00066082	-0.00062402	-0.00067087	-0.67969	-0.65625	-0.71875	-0.61719	-0.63281	-0.64453	-0.68359	-0.67969	188.565	381.544	243.922	159.926	172.338	236.504	473.472	324.276	377.515	276.146	442.934	153.004	311.367	121.314	356.308	208.760	-8191	255	
213.585	1	1	0	0	0.0019093	0.0010061	0.0011141	0.0013611	0.0021645	0.0016805	0.0013908	0.0019001	0.28189	0.38548	0.77692	2.0204	0.96453	0.61664	0.49452	0.50638	1.1342	1.146	1.1796	1.2014	1.0899	1.228	1.0778	1.1256	1095.4	1095.4	1092.6	1092.2	1090.8	1088.8	1087.1	1086.6	518.144	292.101	233.233	330.429	483.467	194.100	360.543	277.741	438.506	234.972	361.150	338.749	510.792	306.401	437.953	252.247	3.7839e-05	0.00012499	3.08e-05	0.00012438	1.8422e-05	3.2698e-05	6.2174e-05	5.5388e-05	0.044177	0.06904	0.052228	0.04349	0.10895	0.043756	0.053226	0.050336	-0.00068464	-0.00065226	-0.00064673	-0.00071379	-0.00063951	-0.00063162	-0.00059906	-0.00070207	-0.71484	-0.71875	-0.66406	-0.70703	-0.66797	-0.70312	-0.69531	-0.73047	471.181	181.961	231.060	257.056	185.100	380.296	392.683	290.088	375.547	273.569	416.780	162.630	452.354	150.783	342.069	245.694	-8191	255	
213.605	1	1	0	0	0.00093255	0.0024301	0.0010054	0.0018193	0.0012543	0.0010731	0.00088592	0.0015669	0.84183	0.2596	0.85921	0.85189	1.0269	0.66259	1.3057	1.7228	1.1175	1.1293	1.1656	1.1992	1.0917	1.2359	1.0871	1.1374	1103.7	1101.9	1100.4	1099.7	1097.8	1095.5	1094.3	1096.1	471.060	272.950	353.264	444.604	507.704	405.373	332.972	484.796	512.396	299.631	242.606	330.620	168.087	287.271	291.351	458.312	7.5803e-05	0.00011453	8.5535e-05	0.00010568	0.00010824	6.6768e-05	0.00010554	0.00017678	0.090324	0.016914	0.050609	0.052181	0.010492	0.0045488	0.017054	0.013672	-0.00067663	-0.00069522	-0.00072559	-0.00072569	-0.00070078	-0.00066082	-0.00065967	-0.00068647	-0.6875	-0.69922	-0.74219	-0.69922	-0.74609	-0.71875	-0.77344	-0.71094	143.858	184.849	126.552	401.873	427.906	391.819	424.229	152.149	200.655	139.434	438.487	316.707	251.781	180.000	174.301	368.157	-8191	255	
213.605	1	1	0	0	0.0023353	0.0020723	0.0027789	0.00090939	0.00094549	0.0017888	0.0011226	0.00075268	0.97316	0.22173	0.25341	0.47563	1.684	1.0088	1.3184	0.38112	1.1271	1.1409	1.1766	1.1983	1.0852	1.2224	1.0717	1.1173	1087.1	1086.4	1084.7	1086	1097.5	1098	1101.6	1105.6	304.414	430.045	477.213	297.228	170.907	481.120	312.315	429.763	215.329	300.889	352.375	469.685	253.868	490.583	464.598	415.982	8.1929e-05	7.1776e-05	5.7076e-05	8.8896e-05	1.3795e-05	6.9893e-05	0.00014381	0.00010998	0.026275	0.064829	0.097363	0.042208	0.017681	0.078433	0.10885	0.057876	-0.00071266	-0.00071085	-0.00070588	-0.00075741	-0.00069312	-0.00064257	-0.00066681	-0.00065526	-0.69922	-0.64453	-0.66406	-0.66406	-0.70703	-0.62891	-0.70312	-0.67188	293.562	459.840	292.349	449.016	445.190	156.358	404.768	169.260	376.868	383.541	206.325	253.204	357.115	392.437	232.280	421.431	-8191	255	
213.605	1	1	0	0	0.0013027	0.0071906	0.0010794	0.00087619	0.00048926	0.002608	0.0013037	0.00044699	0.10826	1.0446	0.96311	0.52057	1.6597	0.3575	1.0213	0.99351	1.1406	1.1537	1.1871	1.2059	1.0909	1.2298	1.0757	1.123	1094.2	1093.9	1094.1	1095.9	1094.5	1092.6	1090.5	1090.9	485.806	279.447	328.649	297.923	418.987	287.861	249.929	264.065	461.705	333.562	508.870	259.406	225.412	401.856	443.788	232.377	0.00010012	0.0001001	0.00010803	6.9898e-05	7.9598e-05	9.0937e-05	7.951e-05	1.5139e-05	0.025089	0.06813	0.039799	0.06239	0.02522	0.055227	0.014641	0.035312	-0.00065661	-0.00063664	-0.00072954	-0.00067017	-0.00065865	-0.00063162	-0.00059906	-0.00069037	-0.65234	-0.63281	-0.65234	-0.63672	-0.67188	-0.69531	-0.64453	-0.63672	348.112	359.795	316.956	124.373	222.714	239.035	267.842	221.833	162.770	213.669	243.778	355.286	374.782	402.162	373.508	216.328	-8191	255	
213.605	1	1	0	0	0.002804	0.00030558	0.0031645	0.00070077	0.0026765	0.016573	0.001075	0.0012553	0.082862	1.2718	0.63639	0.367	0.70913	1.1318	0.49112	0.99492	1.1224	1.1341	1.169	1.1903	1.0776	1.2195	1.0785	1.1304	1104.6	1108.6	1111.4	1106.5	1103.5	1100.9	1097.9	1095.1	516.493	222.394	415.926	207.192	297.732	450.084	502.682	493.206	263.622	452.977	443.966	470.641	271.708	268.798	507.945	231.892	9.7184e-05	0.0001492	0.00014136	0.00023208	0.0001137	2.5346e-05	0.00011535	0.00011643	0.026334	0.02129	0.040451	0.095037	0.043389	0.020066	0.06562	0.024593	-0.00070065	-0.00073037	-0.00074926	-0.00070189	-0.00069312	-0.00069733	-0.00065254	-0.00076838	-0.69141	-0.73438	-0.70703	-0.71094	-0.69531	-0.74219	-0.67969	-0.76172	202.884	275.777	212.330	449.914	259.022	282.539	362.238	237.615	355.553	185.072	415.279	216.171	407.313	431.470	298.603	466.699	-8191	255	
213.614	1	1	0	0	0.0013497	0.0061147	0.0016358	0.0011422	0.002324	0.002509	0.0015076	0.0031191	1.0702	0.58756	0.62748	0.16473	1.07	0.67913	1.7772	0.68224	1.1265	1.1379	1.1762	1.199	1.0864	1.2273	1.0751	1.121	1092.2	1090.2	1089.5	1090.3	1087.6	1086.7	1085.3	1098.3	353.210	474.763	261.881	494.566	222.566	222.613	247.415	283.506	170.622	392.152	165.145	293.452	286.255	319.088	322.231	305.398	6.229e-05	0.0001405	0.00012373	7.7781e-05	0.00015856	0.00018812	7.5118e-05	9.0268e-05	0.054574	0.0024504	0.025485	0.071038	0.042981	0.050908	0.035146	0.035446	-0.00070065	-0.00072256	-0.00072559	-0.00068603	-0.00071609	-0.00066082	-0.00064185	-0.00072937	-0.71484	-0.68359	-0.71484	-0.70312	-0.67188	-0.74609	-0.75	-0.64453	221.260	255.173	453.118	332.053	371.218	347.774	376.558	274.700	209.778	180.000	356.430	334.823	461.615	229.208	291.852	307.336	-8191	255	
213.614	1	1	0	0	0.00228	0.0010416	0.002357	7.1208e-05	0.002571	0.0020573	0.00152	0.0039601	1.1332	1.9098	1.2576	0.77136	0.56576	0.5553	0.94486	0.63265	1.1328	1.1498	1.1924	1.2187	1.1004	1.2388	1.0837	1.1288	1095.9	1094.5	1091.7	1095	1093.2	1093.2	1094	1093.9	478.515	486.988	501.138	468.650	370.676	284.580	293.518	289.252	266.239	275.862	234.125	348.767	395.877	476.528	448.158	229.970	8.4803e-05	0.00010997	7.3515e-05	9.6684e-05	0.00016923	2.1747e-05	0.00012731	8.396e-05	0.078697	0.025359	0.024223	0.022383	0.081466	0.083622	0.018931	0.045684	-0.00066462	-0.00069132	-0.00069405	-0.00067413	-0.00065099	-0.00058415	-0.00060262	-0.00072937	-0.625	-0.66406	-0.65234	-0.67969	-0.67188	-0.66797	-0.66797	-0.67578	397.490	429.983	349.375	201.153	391.703	148.654	351.993	239.358	364.136	441.387	160.567	120.472	426.415	404.317	150.232	242.190	-8191	255	
